347925,14,148,65,1000
347945,11,160,64,0
347955,12,183,80,0
347965,10,158,74,0
347975,10,162,73,0
347985,12,145,76,0
347995,12,110,80,0
348005,11,99,78,0
348015,13,131,81,0
348025,12,141,72,0
348035,15,219,75,0
348045,14,293,83,0
348055,15,212,80,0
348065,15,199,80,0
348075,15,208,72,0
348086,16,177,77,0
348096,18,147,84,0
348106,16,128,69,0
348116,19,109,69,0
348126,16,107,65,0
348136,15,159,60,0
348146,17,139,74,0
348156,16,115,68,0
348166,13,106,73,0
348176,16,132,71,0
348186,23,126,83,0
348196,20,108,86,0
348206,46,113,100,0
348216,74,99,104,0
348226,60,116,127,0
348236,83,181,119,0
348246,89,164,101,0
348256,68,191,92,0
348266,48,152,91,0
348276,41,161,89,0
348286,36,137,85,0
348297,28,123,80,0
348307,24,154,71,0
348317,20,150,70,0
348327,18,136,77,0
348337,14,158,73,0
348347,13,139,84,0
348357,17,130,82,0
348367,14,132,73,0
348377,17,178,72,0
348387,15,188,72,0
348397,12,232,74,0
348407,11,219,73,0
348417,13,219,70,0
348427,12,177,72,0
348437,12,173,62,0
348447,16,140,64,0
348457,15,149,63,0
348467,15,117,82,0
348477,14,98,84,0
348487,12,112,76,0
348498,13,112,81,0
348508,13,122,82,0
348518,15,112,76,0
348528,12,109,80,0
348538,10,128,79,0
348548,14,145,76,0
348558,14,150,77,0
348568,14,181,67,0
348578,14,166,78,0
348588,13,164,82,0
348598,11,223,76,0
348608,10,222,77,0
348618,11,226,68,0
348628,9,210,80,0
348638,9,204,80,0
348648,12,161,86,0
348658,12,152,90,0
348668,12,148,80,0
348678,13,124,77,0
348688,13,129,71,0
348698,17,110,72,0
348709,15,121,69,0
348719,15,116,70,0
348729,13,118,74,0
348739,11,122,81,0
348749,15,105,78,0
348759,15,125,82,0
348769,16,130,74,0
348779,21,202,75,0
348789,22,225,86,0
348799,42,238,95,0
348809,77,249,100,0
348819,62,210,113,0
348829,80,190,128,0
348839,99,181,99,0
348849,79,155,81,0
348859,56,242,79,0
348869,47,306,76,0
348879,34,264,77,0
348889,28,314,69,0
348899,24,369,71,0
348909,19,289,69,0
348920,19,249,69,0
348930,17,213,81,0
348940,12,180,73,0
348950,12,160,78,0
348960,15,132,72,0
348970,10,178,71,0
348980,11,192,80,0
348990,13,195,76,0
349000,16,195,74,0
349010,15,228,73,0
349020,14,282,75,0
349030,17,218,83,0
349040,16,222,79,0
349050,12,313,76,0
349060,14,439,90,0
349070,15,319,78,0
349080,12,258,76,0
349090,15,234,75,0
349100,14,292,65,0
349110,14,238,73,0
349120,13,181,70,0
349131,15,174,77,0
349141,12,164,73,0
349151,13,182,72,0
349161,19,188,70,0
349171,14,184,67,0
349181,18,194,70,0
349191,16,197,70,0
349201,14,266,67,0
349211,16,366,73,0
349221,12,285,69,0
349231,15,281,64,0
349241,14,266,69,0
349251,11,220,73,0
349261,15,242,80,0
349271,14,232,75,0
349281,13,197,74,0
349291,14,189,78,0
349301,16,312,82,0
349311,17,292,83,0
349321,16,286,86,0
349331,13,255,86,0
349342,16,208,81,0
349352,14,183,77,0
349362,19,158,66,0
349372,22,217,74,0
349382,25,181,82,0
349392,61,164,92,0
349402,78,161,92,0
349412,69,166,117,0
349422,92,226,105,0
349432,90,302,97,601
349442,63,272,99,0
349452,53,253,90,0
349462,41,215,90,0
349472,32,203,77,0
349482,25,179,72,0
349492,20,150,68,0
349502,19,208,69,0
349512,14,298,67,0
349522,14,255,64,0
349532,13,208,75,0
349542,14,191,75,0
349553,16,151,81,0
349563,17,179,82,0
349573,16,176,71,0
349583,15,201,85,0
349593,18,261,81,0
349603,18,216,73,0
349613,18,318,79,0
349623,17,246,77,0
349633,16,243,81,0
349643,16,208,76,0
349653,11,222,66,0
349663,11,212,73,0
349673,13,290,65,0
349683,12,271,66,0
349693,14,394,71,0
349703,14,340,72,0
349713,13,359,70,0
349723,11,318,69,0
349733,12,260,61,0
349743,16,224,69,0
349754,14,210,66,0
349764,12,179,78,0
349774,11,235,72,0
349784,14,179,64,0
349794,13,177,67,0
349804,13,146,70,0
349814,15,137,69,0
349824,10,134,69,0
349834,13,209,70,0
349844,14,210,79,0
349854,11,191,73,0
349864,14,225,69,0
349874,15,268,74,0
349884,15,299,62,0
349894,13,228,75,0
349904,12,237,80,0
349914,11,203,81,0
349924,13,189,81,0
349934,11,153,78,0
349944,22,126,85,0
349954,20,122,85,0
349965,30,171,92,0
349975,66,282,85,0
349985,68,264,97,0
349995,66,391,107,0
350005,87,290,98,0
350015,79,240,95,0
350025,54,223,83,0
350035,44,195,78,0
350045,36,179,88,0
350055,27,195,82,0
350065,27,222,76,0
350075,22,357,74,0
350085,18,283,63,0
350095,16,237,66,0
350105,16,240,75,0
350115,16,215,79,0
350125,13,218,86,0
350135,13,184,89,0
350145,14,150,90,0
350155,13,203,82,0
350165,12,194,81,0
350176,13,184,83,0
350186,11,180,79,0
350196,11,146,78,0
350206,9,133,72,0
350216,16,115,72,0
350226,14,152,78,0
350236,17,190,80,0
350246,17,193,77,0
350256,17,204,77,0
350266,13,214,73,0
350276,12,240,77,0
350286,11,232,67,0
350296,11,221,69,0
350306,14,237,71,0
350316,13,176,72,0
350326,11,197,68,0
350336,14,213,72,0
350346,15,240,67,0
350356,16,189,64,0
350366,17,238,61,0
350376,14,207,64,0
350387,14,192,64,0
350397,12,185,71,0
350407,14,177,72,0
350417,15,226,72,0
350427,16,198,92,0
350437,15,191,83,0
350447,16,231,82,0
350457,17,249,79,0
350467,13,238,69,0
350477,12,256,63,0
350487,11,226,69,0
350497,14,223,79,0
350507,13,252,82,0
350517,15,213,78,0
350527,16,175,80,0
350537,20,147,97,0
350547,30,138,113,0
350557,57,114,97,0
350567,50,102,117,0
350577,56,95,115,0
350587,77,121,94,0
350598,60,146,93,0
350608,47,143,91,0
350618,38,145,80,0
350628,33,120,70,0
350638,27,205,73,0
350648,23,195,75,0
350658,19,168,73,0
350668,17,155,82,0
350678,14,194,83,0
350688,13,181,84,0
350698,10,175,76,0
350708,12,160,75,0
350718,13,132,80,0
350728,15,138,74,0
350738,15,180,78,0
350748,13,164,71,0
350758,16,182,74,0
350768,15,169,73,0
350778,14,174,74,0
350788,13,183,80,0
350799,13,167,79,0
350809,17,138,83,0
350819,14,138,93,0
350829,12,135,83,0
350839,11,148,90,0
350849,15,143,84,0
350859,13,154,89,0
350869,11,129,80,0
350879,14,110,79,0
350889,10,92,85,0
350899,16,113,82,0
350909,11,119,81,0
350919,11,152,67,0
350929,13,202,69,0
350939,14,239,72,0
350949,15,199,74,0
350959,16,179,80,0
350969,13,152,89,0
350979,16,190,81,0
350989,16,201,77,0
350999,13,169,79,0
351010,13,156,74,0
351020,15,128,83,0
351030,16,92,79,0
351040,16,99,92,0
351050,16,104,117,0
351060,14,100,102,0
351070,15,108,99,0
351080,14,110,102,0
351090,16,107,93,0
351100,17,146,90,0
351110,21,139,95,0
351120,28,123,104,0
351130,53,111,106,0
351140,58,101,109,0
351150,57,137,123,0
351160,79,143,112,0
351170,74,209,108,0
351180,50,192,107,0
351190,44,167,96,0
351200,35,151,91,0
351210,26,132,87,0
351221,21,109,87,0
351231,18,151,84,0
351241,20,162,91,0
351251,19,150,83,0
351261,13,115,107,0
351271,16,136,111,0
351281,14,124,111,0
351291,17,135,107,0
351301,14,122,94,0
351311,16,146,100,0
351321,15,171,86,0
351331,21,166,86,0
351341,19,175,77,0
351351,17,151,67,0
351361,17,123,79,0
351371,15,111,73,0
351381,14,107,87,0
351391,15,95,102,0
351401,12,112,99,0
351411,13,109,86,0
351421,18,101,82,0
351432,17,103,73,0
351442,15,98,71,0
351452,16,103,71,0
351462,15,113,73,0
351472,15,87,77,0
351482,15,99,69,0
351492,12,101,71,0
351502,14,97,70,0
351512,14,102,75,0
351522,15,122,69,0
351532,14,128,66,0
351542,11,157,64,0
351552,14,173,80,0
351562,16,176,65,0
351572,17,152,71,0
351582,15,132,66,0
351592,17,104,63,0
351602,24,143,74,0
351612,23,165,80,0
351622,21,147,98,0
351632,21,124,87,0
351643,22,116,86,0
351653,16,130,89,0
351663,20,153,90,0
351673,24,150,93,0
351683,21,119,89,0
351693,25,97,113,0
351703,51,124,125,0
351713,61,157,132,0
351723,62,123,147,0
351733,73,147,131,0
351743,66,155,126,0
351753,46,194,120,0
351763,41,189,96,0
351773,39,156,100,0
351783,31,181,101,0
351793,29,149,94,0
351803,29,136,86,0
351813,24,130,83,0
351823,20,155,87,0
351833,17,124,88,0
351844,22,139,100,0
351854,24,117,89,0
351864,23,137,98,0
351874,24,125,80,0
351884,22,174,87,0
351894,23,174,98,0
351904,20,146,85,0
351914,21,135,81,0
351924,20,126,64,0
351934,22,123,66,0
351944,22,110,73,0
351954,26,127,71,0
351964,26,109,77,0
351974,26,121,74,0
351984,22,103,67,0
351994,24,94,73,0
352004,26,127,81,0
352014,26,136,79,0
352024,23,123,100,0
352034,33,124,95,0
352044,27,118,96,0
352055,30,104,88,0
352065,23,108,93,0
352075,25,126,87,0
352085,22,135,88,0
352095,19,134,78,0
352105,18,123,76,0
352115,18,117,72,0
352125,18,134,66,0
352135,21,121,72,0
352145,17,138,80,0
352155,14,141,81,0
352165,16,167,82,0
352175,18,139,76,0
352185,20,181,63,0
352195,17,159,82,0
352205,19,129,86,0
352215,16,133,83,0
352225,18,154,89,0
352235,22,164,96,0
352245,18,204,97,0
352255,24,187,83,0
352266,21,163,96,0
352276,42,127,107,0
352286,61,113,108,0
352296,50,147,146,0
352306,76,154,123,0
352316,72,129,108,0
352326,57,135,117,0
352336,54,109,112,0
352346,37,106,115,0
352356,32,117,96,0
352366,28,143,81,0
352376,24,162,86,0
352386,26,151,80,0
352396,24,140,92,0
352406,20,127,94,0
352416,20,122,86,0
352426,25,136,81,0
352436,25,181,71,602
352446,29,170,83,0
352456,25,137,90,0
352466,26,129,90,0
352477,25,118,83,0
352487,21,124,91,0
352497,21,107,84,0
352507,25,156,71,0
352517,21,133,64,0
352527,16,122,69,0
352537,16,108,74,0
352547,17,123,77,0
352557,20,138,76,0
352567,19,158,72,0
352577,17,247,76,0
352587,16,249,71,0
352597,16,278,86,0
352607,18,356,83,0
352617,17,262,70,0
352627,12,213,76,0
352637,14,230,71,0
352647,14,166,78,0
352657,12,159,76,0
352667,10,238,80,0
352677,15,231,84,0
352688,16,363,86,0
352698,11,377,73,0
352708,14,318,76,0
352718,13,282,78,0
352728,16,297,82,0
352738,16,336,91,0
352748,17,283,93,0
352758,16,347,91,0
352768,14,271,81,0
352778,18,216,74,0
352788,14,184,81,0
352798,16,175,83,0
352808,14,218,75,0
352818,16,178,89,0
352828,16,262,95,0
352838,17,292,78,0
352848,20,305,83,0
352858,32,416,85,0
352868,59,472,86,0
352878,49,369,125,0
352889,79,291,131,0
352899,116,257,108,0
352909,106,264,117,0
352919,79,273,95,0
352929,72,205,85,0
352939,66,267,85,0
352949,60,287,81,0
352959,55,369,83,0
352969,48,392,71,0
352979,42,284,78,0
352989,41,285,72,0
352999,32,339,80,0
353009,32,455,75,0
353019,27,366,85,0
353029,24,565,74,0
353039,26,544,74,0
353049,19,473,81,0
353059,14,450,84,0
353069,18,324,81,0
353079,20,355,84,0
353089,19,342,76,0
353100,16,350,69,0
353110,15,351,86,0
353120,13,292,83,0
353130,16,243,95,0
353140,16,221,84,0
353150,14,205,81,0
353160,19,220,87,0
353170,15,224,86,0
353180,16,188,85,0
353190,16,197,79,0
353200,13,233,72,0
353210,16,260,66,0
353220,17,191,72,0
353230,13,172,71,0
353240,15,139,68,0
353250,18,116,64,0
353260,17,111,72,0
353270,13,137,73,0
353280,13,126,69,0
353290,13,146,74,0
353300,11,246,76,0
353311,12,224,75,0
353321,16,195,78,0
353331,11,168,81,0
353341,13,158,89,0
353351,16,196,83,0
353361,18,244,87,0
353371,15,259,76,0
353381,17,236,78,0
353391,14,234,75,0
353401,15,285,74,0
353411,13,230,84,0
353421,15,193,94,0
353431,21,218,90,0
353441,18,179,98,0
353451,36,139,107,0
353461,63,115,106,0
353471,57,182,127,0
353481,65,183,129,0
353491,92,281,123,0
353501,83,239,108,0
353511,56,183,101,0
353522,42,216,94,0
353532,31,184,84,0
353542,29,243,80,0
353552,21,206,76,0
353562,18,203,74,0
353572,19,251,61,0
353582,17,243,67,0
353592,13,225,70,0
353602,13,193,78,0
353612,13,189,83,0
353622,11,151,74,0
353632,10,164,75,0
353642,11,135,71,0
353652,14,125,80,0
353662,14,160,83,0
353672,12,169,75,0
353682,14,169,74,0
353692,15,230,69,0
353702,14,206,71,0
353712,16,177,77,0
353722,12,150,75,0
353733,13,121,74,0
353743,12,109,74,0
353753,13,102,76,0
353763,15,98,90,0
353773,15,87,85,0
353783,13,90,80,0
353793,17,105,79,0
353803,13,101,70,0
353813,13,128,73,0
353823,16,138,68,0
353833,13,109,69,0
353843,11,101,72,0
353853,14,90,66,0
353863,12,91,72,0
353873,10,75,69,0
353883,11,68,65,0
353893,12,64,72,0
353903,16,68,77,0
353913,14,73,87,0
353923,13,73,77,0
353934,14,69,75,0
353944,13,65,79,0
353954,13,91,77,0
353964,15,106,76,0
353974,12,132,78,0
353984,16,139,73,0
353994,12,171,68,0
354004,16,149,76,0
354014,13,137,76,0
354024,14,111,88,0
354034,21,97,91,0
354044,24,95,94,0
354054,54,88,98,0
354064,62,78,115,0
354074,57,69,141,0
354084,78,56,125,0
354094,76,55,106,0
354104,55,69,96,0
354114,40,77,81,0
354124,36,71,80,0
354134,25,81,81,0
354145,23,67,87,0
354155,22,82,84,0
354165,17,94,88,0
354175,16,97,90,0
354185,14,133,85,0
354195,16,119,91,0
354205,12,114,76,0
354215,14,102,74,0
354225,12,155,77,0
354235,11,114,74,0
354245,13,95,75,0
354255,14,124,72,0
354265,14,140,71,0
354275,11,115,78,0
354285,14,101,81,0
354295,16,120,86,0
354305,12,182,76,0
354315,11,142,70,0
354325,13,111,61,0
354335,14,98,59,0
354345,10,83,69,0
354356,13,75,63,0
354366,15,79,63,0
354376,15,113,62,0
354386,13,144,63,0
354396,15,150,74,0
354406,13,160,70,0
354416,15,118,67,0
354426,15,110,67,0
354436,14,106,68,0
354446,11,101,71,1001
354456,11,93,72,0
354466,10,83,78,0
354476,14,93,86,0
354486,16,99,81,0
354496,16,94,81,0
354506,16,108,78,0
354516,16,96,74,0
354526,15,89,80,0
354536,17,80,77,0
354546,15,91,77,0
354556,17,97,69,0
354567,15,121,63,0
354577,15,117,74,0
354587,14,99,73,0
354597,16,111,73,0
354607,17,87,74,0
354617,17,108,72,0
354627,19,141,73,0
354637,27,116,79,0
354647,24,107,82,0
354657,58,99,94,0
354667,70,100,102,0
354677,60,95,142,0
354687,82,125,113,0
354697,85,155,105,0
354707,59,215,100,0
354717,46,159,84,0
354727,34,168,85,0
354737,28,156,91,0
354747,20,150,89,0
354757,18,130,79,0
354767,15,161,72,0
354778,14,142,77,0
354788,16,119,82,0
354798,13,111,79,0
354808,17,90,75,0
354818,12,92,72,0
354828,15,92,77,0
354838,14,145,78,0
354848,14,126,76,0
354858,12,114,74,0
354868,14,112,69,0
354878,13,114,83,0
354888,15,102,76,0
354898,13,120,75,0
354908,13,101,71,0
354918,12,93,76,0
354928,15,84,83,0
354938,13,91,75,0
354948,16,125,69,0
354958,13,191,68,0
354968,15,155,70,0
354978,14,134,71,0
354989,14,140,69,0
354999,13,150,75,0
355009,15,113,69,0
355019,12,102,69,0
355029,14,122,73,0
355039,11,101,77,0
355049,12,102,69,0
355059,13,94,62,0
355069,17,88,68,0
355079,15,96,72,0
355089,16,96,66,0
355099,15,102,61,0
355109,15,85,65,0
355119,16,79,75,0
355129,16,83,79,0
355139,14,75,67,0
355149,16,82,75,0
355159,14,97,79,0
355169,16,111,71,0
355179,18,119,79,0
355189,17,135,79,0
355200,16,133,76,0
355210,15,115,81,0
355220,15,164,73,0
355230,13,141,81,0
355240,20,134,85,0
355250,20,118,89,0
355260,29,144,93,0
355270,62,134,84,0
355280,65,101,113,0
355290,63,114,121,0
355300,84,96,103,0
355310,77,85,87,0
355320,53,80,92,0
355330,44,78,79,0
355340,33,98,85,0
355350,28,100,77,0
355360,21,130,77,0
355370,20,151,74,0
355380,17,130,76,0
355390,17,114,74,0
355401,17,132,67,0
355411,17,117,79,0
355421,17,109,73,0
355431,12,126,74,0
355441,14,114,81,0
355451,12,99,75,0
355461,14,112,66,0
355471,11,134,78,0
355481,14,129,74,0
355491,14,175,81,0
355501,15,138,83,0
355511,12,137,86,0
355521,13,122,82,0
355531,11,116,83,0
355541,13,98,75,0
355551,14,86,70,0
355561,13,104,69,0
355571,13,113,70,0
355581,12,99,67,0
355591,12,92,66,0
355601,11,83,72,0
355612,13,71,70,0
355622,12,67,79,0
355632,12,81,80,0
355642,13,96,79,0
355652,14,103,68,0
355662,13,96,73,0
355672,13,82,71,0
355682,12,107,66,0
355692,12,120,67,0
355702,10,110,66,0
355712,12,112,68,0
355722,13,109,75,0
355732,12,93,72,0
355742,14,98,75,0
355752,16,78,72,0
355762,14,77,81,0
355772,16,95,76,0
355782,13,86,78,0
355792,11,94,75,0
355802,11,89,71,0
355812,15,97,84,0
355823,12,120,89,0
355833,13,111,86,0
355843,11,88,84,0
355853,13,97,83,0
355863,22,126,81,0
355873,20,118,91,0
355883,40,97,93,0
355893,73,94,92,0
355903,58,95,120,0
355913,71,111,131,0
355923,90,127,117,0
355933,77,113,109,0
355943,51,99,94,0
355953,44,85,90,0
355963,32,86,88,0
355973,28,89,73,0
355983,23,101,69,0
355993,17,117,73,0
356003,19,92,74,0
356013,19,84,75,0
356023,16,98,77,0
356034,15,92,75,0
356044,13,88,81,0
356054,18,86,79,0
356064,16,88,85,0
356074,12,89,81,0
356084,11,87,77,0
356094,13,121,77,0
356104,11,133,74,1000
356114,13,163,83,600
356124,11,228,85,0
356134,13,183,87,0
356144,17,139,90,0
356154,15,116,96,0
356164,14,109,73,0
356174,15,115,82,0
356184,12,105,69,0
356194,14,99,62,0
356204,15,114,65,0
356214,12,108,65,0
356224,14,86,69,0
356234,12,104,76,0
356245,15,90,77,0
356255,14,103,78,0
356265,11,113,79,0
356275,11,111,79,0
356285,14,121,79,0
356295,15,105,79,0
356305,14,109,79,0
356315,16,95,76,0
356325,15,91,73,0
356335,13,106,68,0
356345,13,102,73,0
356355,11,99,76,0
356365,14,103,82,0
356375,12,92,85,0
356385,10,88,82,0
356395,14,102,86,0
356405,13,120,84,0
356415,11,119,78,0
356425,13,136,69,0
356435,10,128,64,0
356445,12,113,79,0
356456,11,93,75,0
356466,13,89,75,0
356476,12,80,75,0
356486,14,91,86,0
356496,19,98,89,0
356506,27,88,92,0
356516,56,86,92,0
356526,67,131,116,0
356536,60,124,132,0
356546,81,180,122,0
356556,82,159,117,0
356566,56,148,93,0
356576,43,132,91,0
356586,31,157,93,0
356596,25,133,94,0
356606,22,129,86,0
356616,17,160,74,0
356626,14,150,80,0
356636,16,170,76,0
356646,15,206,79,0
356657,15,193,69,0
356667,14,216,70,0
356677,16,231,73,0
356687,13,203,76,0
356697,13,289,85,0
356707,12,225,82,0
356717,15,225,77,0
356727,14,226,73,0
356737,10,179,80,0
356747,12,161,74,0
356757,13,157,77,0
356767,16,142,85,0
356777,17,123,92,0
356787,16,127,78,0
356797,17,134,76,0
356807,16,172,72,0
356817,14,138,73,0
356827,13,115,72,0
356837,16,118,72,0
356847,16,127,72,0
356857,15,104,71,0
356868,15,87,71,0
356878,15,72,79,0
356888,14,71,90,0
356898,13,113,81,0
356908,12,125,79,0
356918,13,119,75,0
356928,13,179,77,0
356938,14,235,72,0
356948,11,247,75,0
356958,11,202,69,0
356968,12,196,76,0
356978,13,204,88,0
356988,12,312,87,0
356998,11,313,75,0
357008,13,256,76,0
357018,15,231,68,0
357028,12,212,72,0
357038,16,199,63,0
357048,16,143,64,0
357058,16,152,69,0
357068,13,209,70,0
357079,15,175,79,0
357089,17,172,77,0
357099,12,138,74,0
357109,16,130,72,0
357119,19,156,72,0
357129,18,140,80,0
357139,44,144,86,0
357149,70,137,85,0
357159,57,149,116,0
357169,73,127,104,0
357179,90,123,101,0
357189,74,144,101,0
357199,50,210,90,0
357209,40,221,83,0
357219,32,182,85,0
357229,26,221,85,0
357239,19,240,86,0
357249,19,211,85,0
357259,16,173,78,0
357269,16,168,70,0
357279,14,188,86,0
357290,14,199,74,0
357300,12,170,72,0
357310,12,152,83,0
357320,11,237,85,0
357330,12,203,88,0
357340,13,231,87,0
357350,10,192,82,0
357360,10,169,85,0
357370,11,140,80,0
357380,10,132,84,0
357390,16,127,76,0
357400,12,100,83,0
357410,16,108,87,0
357420,17,115,80,0
357430,14,101,74,0
357440,15,121,76,0
357450,13,129,74,0
357460,14,126,81,0
357470,14,119,80,0
357480,13,114,75,0
357490,14,130,73,0
357501,15,134,69,0
357511,14,126,80,0
357521,14,137,82,0
357531,12,178,82,0
357541,16,165,81,0
357551,17,192,86,0
357561,15,218,83,0
357571,19,228,87,0
357581,17,266,80,0
357591,17,237,66,0
357601,12,208,74,0
357611,14,149,73,601
357621,15,215,76,0
357631,19,200,79,0
357641,14,300,83,0
357651,14,238,72,0
357661,17,208,83,0
357671,15,200,82,0
357681,14,230,78,0
357691,15,207,74,0
357702,17,241,73,0
357712,16,220,87,0
357722,14,262,81,0
357732,16,213,73,0
357742,20,226,84,0
357752,22,263,81,0
357762,37,228,84,0
357772,64,199,90,0
357782,54,211,126,0
357792,62,244,121,0
357802,78,208,113,0
357812,65,191,101,0
357822,48,179,92,0
357832,38,173,72,0
357842,32,189,68,0
357852,25,189,71,0
357862,19,175,73,0
357872,18,142,69,0
357882,15,135,66,0
357892,14,124,62,0
357902,16,123,70,0
357913,13,105,63,0
357923,14,92,69,0
357933,17,103,69,0
357943,16,154,73,0
357953,14,136,76,0
357963,14,167,75,0
357973,13,135,68,0
357983,13,131,68,0
357993,13,134,87,0
358003,11,139,96,0
358013,13,139,98,0
358023,11,136,99,0
358033,10,198,85,0
358043,8,195,83,0
358053,8,229,101,0
358063,13,212,92,0
358073,15,184,92,0
358083,13,167,75,0
358093,11,166,80,0
358103,12,151,78,0
358113,11,128,87,0
358124,10,141,88,0
358134,14,129,75,0
358144,12,137,76,0
358154,14,112,77,0
358164,14,132,72,0
358174,12,111,78,0
358184,12,107,71,0
358194,11,109,76,0
358204,13,110,91,0
358214,14,99,93,0
358224,13,102,90,0
358234,12,84,84,0
358244,18,94,92,0
358254,17,95,99,0
358264,13,97,93,0
358274,15,125,92,0
358284,15,117,87,0
358294,15,113,95,0
358304,15,135,93,0
358314,13,122,76,0
358324,10,180,79,0
358335,11,155,77,0
358345,14,143,89,0
358355,18,114,84,0
358365,19,127,94,0
358375,26,147,109,0
358385,52,123,119,0
358395,69,126,146,0
358405,58,150,160,0
358415,80,202,134,0
358425,85,189,115,0
358435,63,150,105,0
358445,49,159,91,0
358455,38,145,85,0
358465,28,165,83,0
358475,21,132,88,0
358485,18,103,85,0
358495,17,92,89,0
358505,18,88,78,0
358515,12,81,82,0
358525,15,120,69,0
358535,15,140,81,0
358546,12,193,82,0
358556,12,187,77,0
358566,9,178,69,0
358576,12,179,68,0
358586,10,190,68,0
358596,14,144,73,0
358606,15,150,76,0
358616,17,131,85,0
358626,13,109,90,0
358636,12,100,85,0
358646,17,92,86,0
358656,13,77,75,0
358666,15,84,74,0
358676,12,136,77,0
358686,14,138,75,0
358696,14,193,81,0
358706,17,279,76,0
358716,15,253,66,0
358726,12,367,77,0
358736,11,385,77,0
358746,12,299,82,0
358757,13,243,90,0
358767,14,206,80,0
358777,11,170,87,0
358787,15,139,89,0
358797,16,160,81,0
358807,15,181,65,0
358817,15,165,58,0
358827,14,159,64,0
358837,15,134,63,0
358847,11,152,74,0
358857,10,120,69,0
358867,13,124,74,0
358877,11,119,72,0
358887,16,92,85,0
358897,12,111,84,0
358907,15,105,95,0
358917,14,103,110,0
358927,15,92,100,0
358937,17,93,106,0
358947,14,102,101,0
358958,22,100,98,0
358968,30,107,101,0
358978,30,112,108,0
358988,41,116,110,0
358998,85,100,89,0
359008,87,84,136,0
359018,77,78,148,0
359028,100,83,114,0
359038,84,95,110,0
359048,54,87,106,0
359058,39,83,90,0
359068,30,81,90,0
359078,23,93,92,0
359088,20,120,94,0
359098,19,119,83,0
359108,19,114,93,0
359118,18,93,84,0
359128,17,99,85,0
359138,18,121,73,0
359148,14,115,74,0
359158,13,92,78,0
359169,13,95,81,0
359179,12,90,93,0
359189,19,122,84,0
359199,17,168,70,0
359209,15,172,75,0
359219,17,165,78,0
359229,16,155,88,0
359239,12,146,93,0
359249,14,125,103,0
359259,14,112,103,0
359269,15,125,85,0
359279,17,164,85,0
359289,15,158,96,0
359299,13,152,93,0
359309,14,167,83,0
359319,16,168,87,0
359329,16,137,85,0
359339,16,128,80,0
359349,14,119,86,0
359359,20,96,86,0
359369,20,116,77,0
359380,19,98,80,0
359390,14,98,85,0
359400,16,106,90,0
359410,22,114,96,0
359420,24,163,100,0
359430,24,139,98,0
359440,18,161,86,0
359450,22,154,82,0
359460,23,138,77,0
359470,17,131,73,0
359480,16,107,71,0
359490,20,147,63,0
359500,21,147,67,0
359510,21,185,72,0
359520,22,203,72,0
359530,20,177,92,0
359540,22,192,87,0
359550,20,180,85,0
359560,20,188,78,0
359570,31,219,83,0
359580,31,182,100,0
359591,45,199,123,0
359601,73,189,118,0
359611,63,167,131,0
359621,71,189,125,0
359631,92,181,118,0
359641,74,167,116,0
359651,52,175,107,0
359661,42,191,90,0
359671,38,155,94,0
359681,31,159,91,0
359691,23,160,90,0
359701,23,162,75,0
359711,23,161,71,0
359721,19,205,98,0
359731,19,216,110,0
359741,19,204,98,0
359751,18,205,98,0
359761,23,162,94,0
359771,22,192,98,0
359781,17,191,95,0
359791,18,197,83,0
359802,19,196,83,0
359812,20,192,89,0
359822,16,180,91,0
359832,20,157,103,0
359842,19,175,88,0
359852,25,206,83,0
359862,27,174,96,0
359872,24,194,76,0
359882,21,220,92,0
359892,22,202,88,0
359902,24,212,82,0
359912,24,182,89,0
359922,22,202,86,0
359932,24,159,79,0
359942,20,180,88,0
359952,30,149,94,0
359962,24,231,87,0
359972,23,203,94,0
359982,27,224,76,0
359992,24,226,79,0
360003,26,210,78,0
360013,29,214,90,0
360023,28,186,93,0
360033,24,174,101,0
360043,22,222,89,0
360053,28,252,102,0
360063,34,255,106,0
360073,34,217,97,0
360083,30,222,91,0
360093,32,186,100,0
360103,26,166,82,0
360113,32,199,91,0
360123,26,257,105,0
360133,24,213,102,0
360143,24,216,100,0
360153,21,205,114,0
360163,31,177,104,0
360173,39,145,110,0
360183,55,160,96,0
360193,76,165,119,0
360203,66,179,133,0
360214,69,202,131,0
360224,88,216,126,0
360234,83,191,123,0
360244,67,187,128,0
360254,63,183,121,0
360264,55,163,104,0
360274,53,163,86,0
360284,43,183,90,0
360294,33,236,104,0
360304,34,215,93,0
360314,27,187,100,0
360324,27,191,101,0
360334,27,150,90,0
360344,24,175,93,0
360354,23,211,85,0
360364,26,214,81,0
360374,28,242,80,0
360384,32,261,85,0
360394,30,238,83,0
360404,26,175,80,0
360414,28,172,78,0
360425,25,194,65,0
360435,28,217,77,0
360445,30,246,80,0
360455,27,210,86,0
360465,27,200,89,0
360475,20,196,84,0
360485,23,176,88,0
360495,25,174,85,0
360505,25,205,92,0
360515,34,175,92,0
360525,31,197,90,0
360535,29,225,88,0
360545,29,279,95,0
360555,25,232,102,0
360565,27,221,105,0
360575,27,192,101,0
360585,32,191,111,0
360595,26,267,101,0
360605,25,260,106,0
360615,24,261,89,602
360625,26,238,91,0
360636,23,179,79,0
360646,26,178,93,0
360656,28,202,74,0
360666,26,173,78,0
360676,22,187,96,0
360686,21,192,92,0
360696,23,185,91,0
360706,22,143,79,0
360716,19,156,96,0
360726,21,186,94,0
360736,24,172,104,0
360746,37,181,96,0
360756,32,204,121,0
360766,61,196,125,0
360776,75,190,127,0
360786,64,215,153,0
360796,82,196,139,0
360806,79,178,122,0
360816,56,137,112,0
360826,46,176,95,0
360837,36,199,101,0
360847,32,193,106,0
360857,28,240,93,0
360867,21,339,87,0
360877,17,284,95,0
360887,17,216,100,0
360897,14,211,101,0
360907,15,255,99,0
360917,15,253,104,0
360927,14,229,102,0
360937,15,254,94,0
360947,14,261,83,0
360957,12,375,90,0
360967,12,405,77,0
360977,14,296,82,0
360987,13,280,81,0
360997,14,303,85,0
361007,18,240,71,0
361017,16,189,79,0
361027,11,212,85,0
361037,12,227,80,0
361048,18,171,80,0
361058,23,162,70,0
361068,28,171,70,0
361078,27,172,78,0
361088,21,243,80,0
361098,16,246,84,0
361108,22,243,73,0
361118,24,348,81,0
361128,17,391,85,0
361138,17,292,87,0
361148,23,317,82,0
361158,29,246,95,0
361168,23,189,93,0
361178,17,165,85,0
361188,15,169,89,0
361198,18,231,83,0
361208,27,186,75,0
361218,35,144,72,0
361228,30,199,79,0
361238,22,220,84,0
361248,16,206,71,0
361259,16,184,79,0
361269,14,280,92,0
361279,15,372,87,0
361289,17,263,85,0
361299,16,235,95,0
361309,16,315,83,0
361319,21,451,95,0
361329,21,371,101,0
361339,51,341,119,0
361349,70,278,127,0
361359,60,306,158,0
361369,84,243,135,0
361379,84,214,108,0
361389,58,165,90,0
361399,45,154,90,0
361409,34,152,90,0
361419,26,141,81,0
361429,19,188,80,0
361439,15,180,74,0
361449,12,211,68,0
361459,12,203,63,0
361470,15,258,83,0
361480,12,262,91,0
361490,13,217,95,0
361500,16,198,95,0
361510,12,224,96,0
361520,10,212,83,0
361530,11,175,92,0
361540,14,123,78,0
361550,17,133,75,0
361560,15,180,70,0
361570,15,220,69,0
361580,15,167,82,0
361590,14,139,80,0
361600,12,191,77,0
361610,18,227,103,0
361620,17,268,89,0
361630,18,343,91,0
361640,15,312,85,0
361650,15,245,78,0
361660,16,208,75,0
361670,16,218,71,0
361681,14,221,74,0
361691,12,188,66,0
361701,13,163,67,0
361711,14,146,70,0
361721,14,107,80,0
361731,15,108,73,0
361741,13,120,74,0
361751,8,242,74,0
361761,15,260,83,0
361771,18,209,82,0
361781,18,206,86,0
361791,18,171,79,0
361801,17,139,79,0
361811,16,114,74,0
361821,15,114,71,0
361831,16,108,78,0
361841,11,90,79,0
361851,15,87,75,0
361861,12,100,85,0
361871,16,97,89,0
361882,19,100,87,0
361892,24,101,96,0
361902,32,92,112,0
361912,70,78,106,0
361922,73,72,122,0
361932,68,86,129,0
361942,90,102,107,0
361952,85,121,97,0
361962,58,133,96,0
361972,46,120,100,0
361982,38,110,88,0
361992,28,107,77,0
362002,21,82,77,0
362012,20,66,75,0
362022,18,81,66,0
362032,15,96,77,0
362042,14,116,88,0
362052,16,107,85,0
362062,14,90,87,0
362072,13,85,88,0
362082,12,80,86,0
362093,12,83,92,0
362103,13,63,92,0
362113,10,68,85,0
362123,11,71,81,0
362133,12,73,75,0
362143,13,84,69,0
362153,13,84,70,0
362163,14,161,86,0
362173,15,196,82,0
362183,12,230,83,0
362193,12,334,66,0
362203,12,290,72,0
362213,15,271,69,0
362223,17,203,69,0
362233,15,198,72,0
362243,16,225,71,0
362253,14,218,72,0
362263,16,163,79,0
362273,14,122,71,0
362283,11,104,70,0
362293,12,101,75,0
362304,12,80,77,0
362314,13,80,87,0
362324,12,76,86,0
362334,13,76,75,0
362344,13,85,78,0
362354,11,86,78,0
362364,12,86,90,0
362374,12,84,85,0
362384,15,86,78,0
362394,13,75,81,0
362404,14,68,79,0
362414,12,66,77,0
362424,11,81,69,0
362434,12,96,68,0
362444,13,91,67,0
362454,15,80,74,0
362464,18,87,73,0
362474,28,91,73,0
362484,65,111,69,0
362494,76,161,92,0
362504,69,164,100,0
362515,93,230,95,0
362525,89,185,84,0
362535,61,154,79,0
362545,49,142,79,0
362555,35,106,77,0
362565,25,106,77,0
362575,23,102,78,0
362585,19,85,69,0
362595,20,139,73,0
362605,17,150,73,0
362615,18,191,71,1001
362625,16,154,70,0
362635,16,120,75,0
362645,15,102,76,0
362655,16,78,79,0
362665,16,140,80,0
362675,14,118,81,0
362685,14,130,83,0
362695,15,112,76,0
362705,15,90,74,0
362715,16,93,81,0
362726,17,80,81,0
362736,13,115,83,0
362746,16,110,73,0
362756,13,167,80,0
362766,13,152,86,0
362776,11,130,91,0
362786,14,97,74,0
362796,14,81,80,0
362806,12,92,84,0
362816,12,111,73,0
362826,14,119,75,0
362836,13,135,78,0
362846,13,138,77,0
362856,11,138,71,0
362866,13,119,66,0
362876,14,105,62,0
362886,15,112,72,0
362896,14,135,77,0
362906,14,105,82,0
362916,14,166,79,0
362926,10,179,70,0
362937,13,183,73,0
362947,17,177,77,0
362957,12,118,70,0
362967,14,118,66,0
362977,13,117,70,0
362987,13,99,67,0
362997,15,100,86,0
363007,17,94,79,0
363017,13,97,75,0
363027,13,88,73,0
363037,19,87,76,0
363047,21,78,73,0
363057,25,92,89,0
363067,57,128,83,0
363077,73,139,97,0
363087,61,177,110,0
363097,83,188,117,0
363107,89,154,96,0
363117,61,232,84,0
363127,47,213,73,0
363138,37,265,76,0
363148,29,292,76,0
363158,26,228,65,0
363168,20,193,64,0
363178,17,144,71,0
363188,16,119,77,0
363198,17,98,78,0
363208,14,118,78,0
363218,12,112,74,0
363228,10,108,81,0
363238,11,98,88,0
363248,11,104,87,0
363258,10,89,73,0
363268,11,109,63,0
363278,11,124,76,0
363288,12,197,71,0
363298,12,162,81,0
363308,11,165,79,0
363318,14,155,77,0
363328,15,148,79,0
363338,14,119,74,0
363349,12,120,71,0
363359,13,106,68,0
363369,13,115,70,0
363379,12,120,67,0
363389,13,137,65,0
363399,12,151,66,0
363409,14,139,73,0
363419,14,114,71,0
363429,11,104,79,0
363439,14,87,72,0
363449,15,114,67,0
363459,15,94,67,0
363469,14,83,64,0
363479,17,81,68,0
363489,17,81,81,0
363499,16,70,74,0
363509,13,78,78,0
363519,14,93,76,0
363529,15,125,80,0
363539,14,117,72,0
363549,11,114,67,0
363560,13,111,71,0
363570,14,98,73,0
363580,12,98,78,0
363590,12,83,74,0
363600,14,83,65,0
363610,12,128,67,0
363620,12,117,67,0
363630,16,103,80,0
363640,17,97,75,0
363650,18,133,82,0
363660,41,124,90,0
363670,66,102,77,0
363680,53,78,106,0
363690,75,68,99,0
363700,89,82,78,0
363710,68,155,76,0
363720,52,148,71,0
363730,38,122,73,0
363740,33,115,70,0
363750,27,126,78,0
363760,21,128,80,700
363771,20,105,79,0
363781,18,91,83,0
363791,15,92,78,0
363801,12,110,74,0
363811,13,101,75,0
363821,11,110,68,0
363831,12,125,69,0
363841,11,140,71,0
363851,16,173,69,0
363861,15,162,70,0
363871,13,154,73,0
363881,16,119,71,0
363891,15,138,71,0
363901,15,161,71,0
363911,14,160,76,0
363921,16,220,79,0
363931,13,179,84,0
363941,15,157,93,0
363951,15,148,83,0
363961,14,130,82,0
363971,14,115,80,0
363982,12,95,82,0
363992,14,104,75,0
364002,14,104,70,0
364012,11,125,70,0
364022,11,98,78,0
364032,16,130,77,0
364042,16,143,78,0
364052,16,204,78,0
364062,11,204,73,0
364072,12,157,78,0
364082,15,147,72,0
364092,11,149,73,0
364102,12,116,75,0
364112,17,104,70,0
364122,16,101,72,0
364132,16,141,78,0
364142,15,129,77,0
364152,15,153,69,0
364162,15,180,74,0
364172,15,206,70,0
364182,16,179,64,0
364193,15,228,66,0
364203,15,169,64,0
364213,12,182,83,0
364223,15,231,81,0
364233,13,200,74,0
364243,12,220,87,0
364253,16,211,85,0
364263,23,239,82,0
364273,27,213,85,0
364283,57,233,87,0
364293,68,189,114,0
364303,59,137,138,0
364313,77,117,129,0
364323,81,94,115,0
364333,58,82,94,0
364343,45,73,89,0
364353,36,66,87,0
364363,30,64,80,0
364373,22,58,86,0
364383,18,79,84,0
364394,17,103,85,0
364404,18,86,74,0
364414,17,148,79,0
364424,16,197,76,0
364434,15,244,68,0
364444,13,342,59,0
364454,16,246,72,0
364464,18,195,77,0
364474,17,212,82,0
364484,14,292,74,0
364494,16,273,72,0
364504,15,209,73,0
364514,17,164,73,0
364524,14,143,73,0
364534,16,108,77,0
364544,11,102,69,0
364554,10,111,79,0
364564,12,154,76,0
364574,10,165,71,0
364584,11,148,69,0
364594,11,163,72,0
364605,8,264,86,0
364615,10,211,88,0
364625,14,166,90,0
364635,11,160,77,0
364645,12,150,82,0
364655,14,148,81,0
364665,12,153,78,0
364675,16,162,72,0
364685,14,142,68,0
364695,13,127,75,0
364705,14,151,84,0
364715,13,180,80,0
364725,18,149,86,0
364735,15,161,76,0
364745,18,127,88,0
364755,16,128,88,0
364765,18,124,100,0
364775,18,107,95,0
364785,16,99,79,0
364795,13,88,91,0
364805,16,97,100,0
364816,16,83,92,0
364826,15,101,85,0
364836,12,91,78,0
364846,14,96,79,0
364856,16,92,78,0
364866,15,87,87,0
364876,17,125,78,0
364886,14,122,84,0
364896,17,141,79,0
364906,20,146,86,0
364916,35,169,93,0
364926,70,196,81,0
364936,62,211,117,0
364946,68,157,135,0
364956,89,189,106,0
364966,76,168,102,0
364976,56,172,107,0
364986,43,167,97,0
364996,31,148,90,0
365006,23,132,86,0
365016,20,131,82,0
365027,19,110,73,0
365037,12,107,70,0
365047,14,160,84,0
365057,15,215,79,0
365067,12,223,85,0
365077,12,204,80,0
365087,15,229,85,0
365097,16,225,100,0
365107,15,214,92,0
365117,11,199,93,0
365127,13,185,89,0
365137,14,172,87,0
365147,16,141,100,0
365157,11,133,91,0
365167,11,139,88,0
365177,13,164,85,0
365187,13,169,79,0
365197,16,248,79,0
365207,16,249,75,0
365217,12,209,76,0
365227,15,202,79,0
365238,15,239,86,0
365248,15,207,78,0
365258,14,174,74,0
365268,15,215,92,701
365278,15,269,107,0
365288,16,220,98,0
365298,17,199,92,0
365308,16,192,90,0
365318,11,202,77,0
365328,13,289,76,0
365338,14,240,63,0
365348,10,231,76,0
365358,14,263,79,0
365368,15,213,84,0
365378,12,218,92,0
365388,12,219,82,0
365398,13,237,84,0
365408,13,245,89,0
365418,10,318,87,0
365428,13,268,77,0
365439,13,322,83,0
365449,13,286,88,0
365459,14,330,78,0
365469,16,304,79,0
365479,17,288,76,0
365489,17,240,72,0
365499,17,204,74,0
365509,15,206,67,0
365519,15,195,71,0
365529,14,182,78,0
365539,15,245,74,0
365549,23,180,81,0
365559,22,156,94,0
365569,47,203,88,0
365579,63,222,112,0
365589,54,196,145,0
365599,73,185,138,0
365609,83,191,118,0
365619,63,190,106,0
365629,46,155,91,0
365639,36,129,85,0
365650,29,150,92,0
365660,25,133,84,0
365670,19,131,78,0
365680,15,156,84,0
365690,16,139,83,0
365700,15,221,70,0
365710,13,221,79,0
365720,13,223,79,0
365730,12,185,74,0
365740,15,171,85,0
365750,15,166,71,0
365760,16,155,81,0
365770,10,130,75,0
365780,15,159,74,0
365790,16,138,78,0
365800,12,148,79,0
365810,13,225,85,0
365820,15,234,86,0
365830,17,235,84,0
365840,20,239,84,0
365850,16,182,81,0
365861,17,193,84,0
365871,16,213,83,0
365881,16,189,80,0
365891,15,183,79,0
365901,15,245,71,0
365911,13,275,78,0
365921,13,233,78,0
365931,16,255,79,0
365941,15,338,79,0
365951,12,319,79,0
365961,17,285,84,0
365971,12,224,78,0
365981,16,256,85,0
365991,11,218,72,0
366001,14,197,69,0
366011,14,156,60,0
366021,14,139,57,0
366031,17,137,67,0
366041,17,139,72,0
366051,13,122,65,0
366061,14,127,79,0
366072,14,105,80,0
366082,14,115,94,0
366092,13,160,96,0
366102,14,150,79,0
366112,15,132,81,0
366122,13,178,76,0
366132,12,250,79,0
366142,12,277,81,0
366152,11,218,69,0
366162,14,183,66,0
366172,11,288,63,0
366182,19,358,68,0
366192,20,312,81,0
366202,31,314,92,0
366212,58,279,98,0
366222,60,267,125,0
366232,54,254,142,0
366242,77,243,126,0
366252,74,215,104,0
366262,52,286,84,0
366272,41,243,87,0
366283,31,381,83,0
366293,25,396,79,0
366303,19,322,72,0
366313,14,279,86,0
366323,16,257,79,0
366333,15,295,80,0
366343,16,342,74,0
366353,12,314,69,0
366363,16,362,69,0
366373,16,486,77,0
366383,12,406,80,0
366393,15,292,77,0
366403,12,334,88,0
366413,13,299,83,0
366423,12,248,80,0
366433,13,299,69,0
366443,10,270,58,0
366453,12,261,66,0
366463,14,301,72,0
366473,15,281,76,0
366483,16,233,78,0
366494,14,227,83,0
366504,13,237,85,0
366514,14,341,84,0
366524,14,304,81,0
366534,13,259,84,0
366544,15,221,79,0
366554,9,197,73,0
366564,12,213,80,0
366574,12,244,85,0
366584,14,252,74,0
366594,13,232,78,0
366604,16,226,73,0
366614,14,180,69,0
366624,12,218,77,0
366634,12,276,76,0
366644,16,280,79,0
366654,11,258,76,0
366664,14,248,78,0
366674,16,261,70,0
366684,12,246,73,0
366695,13,274,83,0
366705,14,241,95,0
366715,18,225,93,0
366725,13,304,85,0
366735,15,280,84,0
366745,18,300,82,0
366755,16,332,81,0
366765,12,337,78,0
366775,13,329,81,0
366785,14,282,84,0
366795,17,273,90,0
366805,15,224,76,0
366815,21,357,79,0
366825,26,327,84,0
366835,29,268,89,0
366845,61,263,90,0
366855,66,243,106,0
366865,60,292,137,0
366875,81,341,120,0
366885,80,274,101,0
366895,56,233,91,0
366906,45,198,101,0
366916,37,250,83,0
366926,30,402,81,0
366936,26,323,76,0
366946,19,344,73,0
366956,19,336,83,0
366966,17,248,71,0
366976,14,206,76,0
366986,11,210,77,0
366996,15,272,76,0
367006,12,314,78,0
367016,14,315,77,0
367026,15,287,84,0
367036,13,355,75,0
367046,14,287,83,0
367056,13,270,83,0
367066,13,312,87,0
367076,15,309,98,0
367086,15,273,91,0
367096,12,252,87,0
367106,15,318,86,0
367117,17,255,88,0
367127,17,256,80,0
367137,20,248,79,0
367147,12,219,73,0
367157,12,270,84,0
367167,14,243,85,0
367177,15,278,83,0
367187,14,280,81,0
367197,14,298,84,0
367207,18,321,86,0
367217,14,315,89,0
367227,15,318,86,0
367237,11,301,82,0
367247,11,284,75,0
367257,12,266,66,0
367267,15,285,77,0
367277,16,246,74,0
367287,14,282,80,0
367297,16,283,93,0
367307,14,266,82,0
367317,15,338,78,0
367328,15,272,78,0
367338,15,269,89,0
367348,14,287,86,0
367358,14,317,79,0
367368,17,307,76,0
367378,14,336,80,0
367388,15,351,82,0
367398,18,306,81,0
367408,16,271,75,0
367418,17,328,77,0
367428,16,271,79,0
367438,17,242,85,0
367448,27,229,85,0
367458,26,262,102,0
367468,42,317,118,0
367478,72,333,114,0
367488,64,293,147,0
367498,66,229,159,0
367508,85,233,135,0
367518,67,201,126,0
367528,50,213,117,0
367539,38,281,99,0
367549,31,333,100,0
367559,21,358,91,0
367569,16,309,83,0
367579,14,267,88,0
367589,17,278,77,0
367599,15,293,89,0
367609,14,261,86,0
367619,13,390,77,0
367629,12,391,80,0
367639,13,370,71,0
367649,14,326,78,0
367659,14,308,77,0
367669,15,276,72,0
367679,14,242,81,0
367689,15,247,79,0
367699,15,249,77,0
367709,15,280,76,0
367719,15,234,72,0
367729,13,263,79,0
367740,15,261,81,0
367750,18,251,79,0
367760,16,268,74,0
367770,12,252,71,0
367780,17,264,75,0
367790,19,231,73,0
367800,15,264,75,0
367810,20,319,69,0
367820,16,289,74,0
367830,17,257,81,0
367840,14,242,92,0
367850,13,333,79,0
367860,14,313,76,0
367870,12,286,73,0
367880,11,251,75,0
367890,15,279,78,0
367900,13,244,76,0
367910,16,256,78,0
367920,11,285,83,0
367930,14,289,84,0
367940,13,259,80,0
367951,13,264,77,0
367961,13,259,83,0
367971,13,338,69,0
367981,14,289,72,0
367991,10,290,59,0
368001,13,355,65,0
368011,14,288,65,0
368021,13,313,58,0
368031,13,327,86,0
368041,13,292,87,0
368051,11,286,91,0
368061,12,237,83,0
368071,9,243,81,0
368081,20,268,79,0
368091,24,248,94,0
368101,49,230,95,0
368111,72,265,115,0
368121,54,277,125,0
368131,74,322,119,0
368141,84,256,101,0
368151,61,370,98,0
368162,49,488,93,0
368172,33,432,89,0
368182,30,375,92,0
368192,22,412,89,0
368202,19,369,80,0
368212,19,312,81,0
368222,15,273,77,0
368232,15,225,85,0
368242,14,255,80,0
368252,12,253,79,0
368262,16,215,80,702
368272,14,322,86,0
368282,15,361,86,0
368292,12,327,72,0
368302,13,286,68,0
368312,14,281,82,0
368322,11,248,78,0
368332,17,264,76,0
368342,17,275,72,0
368352,13,241,78,0
368362,14,243,85,0
368373,15,221,84,0
368383,13,223,74,0
368393,11,252,71,0
368403,11,296,68,0
368413,14,296,70,0
368423,18,313,74,0
368433,20,286,74,0
368443,33,244,79,0
368453,35,254,78,0
368463,29,309,92,0
368473,27,361,85,0
368483,27,368,81,0
368493,23,351,89,0
368503,20,323,78,0
368513,19,253,87,0
368523,18,270,86,0
368533,13,257,85,0
368543,20,263,86,0
368553,16,246,74,0
368563,20,223,85,0
368574,19,218,78,0
368584,17,188,76,0
368594,19,183,61,0
368604,17,162,83,0
368614,19,170,85,0
368624,19,242,79,0
368634,18,280,77,0
368644,17,314,70,0
368654,14,302,77,0
368664,12,261,78,0
368674,14,293,81,0
368684,13,304,82,0
368694,14,247,85,0
368704,12,250,85,0
368714,26,236,86,0
368724,19,251,100,0
368734,47,222,93,0
368744,66,238,92,0
368754,50,235,118,0
368764,73,204,124,0
368774,82,241,111,0
368785,62,236,98,0
368795,49,244,101,0
368805,42,213,93,0
368815,30,199,90,0
368825,28,237,79,0
368835,22,226,77,0
368845,19,261,76,0
368855,18,247,71,0
368865,19,226,81,0
368875,15,268,81,0
368885,18,236,77,0
368895,17,323,81,0
368905,16,340,77,0
368915,13,282,79,0
368925,15,294,84,0
368935,17,280,78,0
368945,15,293,76,0
368955,10,259,82,0
368965,15,284,84,0
368975,12,316,75,0
368985,16,273,75,0
368996,13,274,87,0
369006,14,306,88,0
369016,14,301,90,0
369026,15,225,89,0
369036,11,245,79,0
369046,13,228,88,0
369056,11,253,89,0
369066,15,218,86,0
369076,12,230,91,0
369086,13,211,93,0
369096,13,194,95,0
369106,13,204,93,0
369116,11,265,88,0
369126,13,240,89,0
369136,14,220,83,0
369146,13,239,85,0
369156,14,224,81,0
369166,12,224,74,0
369176,18,216,78,0
369186,16,259,82,0
369196,12,252,91,0
369207,13,216,99,0
369217,11,191,94,0
369227,13,300,85,0
369237,12,287,89,0
369247,12,334,80,0
369257,14,276,77,0
369267,14,277,82,0
369277,16,262,84,0
369287,12,239,88,0
369297,17,295,84,0
369307,11,320,84,0
369317,14,274,89,0
369327,14,277,92,0
369337,23,279,90,0
369347,22,399,82,0
369357,30,343,85,0
369367,60,451,101,0
369377,52,386,128,0
369387,58,347,131,0
369397,80,288,109,0
369407,67,220,100,0
369418,48,247,82,0
369428,37,281,87,0
369438,29,246,73,0
369448,25,244,81,0
369458,20,241,74,0
369468,14,208,75,0
369478,13,212,81,0
369488,11,172,75,0
369498,12,162,77,0
369508,15,236,74,0
369518,15,251,70,0
369528,16,259,70,0
369538,16,252,65,0
369548,14,361,64,0
369558,16,307,67,0
369568,14,330,74,0
369578,11,357,73,0
369588,14,320,72,0
369598,15,248,79,0
369608,13,273,76,0
369619,17,270,73,0
369629,15,330,73,0
369639,15,307,77,0
369649,15,287,78,0
369659,14,317,80,0
369669,15,248,75,0
369679,12,234,74,0
369689,13,288,80,0
369699,18,297,80,0
369709,14,346,72,0
369719,15,323,68,0
369729,14,246,65,0
369739,12,250,67,0
369749,15,207,71,0
369759,14,198,73,0
369769,13,245,70,0
369779,17,257,73,0
369789,14,249,74,0
369799,13,237,79,0
369809,13,227,81,0
369819,15,219,67,0
369830,10,191,79,0
369840,14,162,83,0
369850,14,151,90,0
369860,15,136,87,0
369870,15,155,76,0
369880,15,154,85,0
369890,12,247,80,0
369900,14,229,77,0
369910,12,251,66,0
369920,15,222,68,0
369930,16,276,79,0
369940,13,239,80,0
369950,12,201,80,0
369960,16,227,76,0
369970,18,236,83,0
369980,23,252,81,0
369990,56,251,92,0
370000,63,254,120,0
370010,58,201,130,0
370020,76,194,118,0
370030,76,168,110,0
370041,53,158,115,0
370051,42,182,94,0
370061,31,174,89,0
370071,26,155,78,0
370081,20,190,78,0
370091,15,223,72,0
370101,17,241,70,0
370111,15,299,63,0
370121,11,258,73,0
370131,12,231,71,0
370141,14,201,66,0
370151,14,141,65,0
370161,12,110,65,0
370171,15,127,69,0
370181,14,198,78,0
370191,13,175,76,0
370201,16,194,79,0
370211,14,188,76,0
370221,13,167,79,0
370231,15,147,97,0
370241,16,126,87,0
370252,18,98,87,0
370262,16,107,76,0
370272,14,126,68,1001
370282,16,123,69,0
370292,12,183,67,0
370302,11,237,72,0
370312,13,306,78,0
370322,13,264,63,0
370332,14,217,66,0
370342,13,203,70,0
370352,12,206,71,0
370362,14,163,77,0
370372,12,136,79,0
370382,12,170,75,0
370392,13,151,66,0
370402,15,193,71,0
370412,13,194,78,0
370422,15,235,80,0
370432,13,272,83,0
370442,17,220,78,0
370452,17,168,71,0
370463,16,162,61,0
370473,16,159,61,0
370483,11,142,63,0
370493,13,130,71,0
370503,15,157,61,0
370513,15,186,69,0
370523,12,200,70,0
370533,12,225,71,0
370543,15,189,68,0
370553,14,213,73,0
370563,11,187,81,0
370573,11,173,82,0
370583,16,200,83,0
370593,23,208,88,0
370603,25,234,85,0
370613,55,196,86,0
370623,69,213,111,0
370633,59,184,140,0
370643,76,175,116,0
370653,81,158,98,0
370664,56,134,97,0
370674,44,213,94,0
370684,32,191,84,0
370694,23,260,82,0
370704,22,232,75,0
370714,20,213,86,0
370724,17,221,78,0
370734,17,200,71,0
370744,15,177,71,0
370754,19,161,80,0
370764,14,137,74,0
370774,17,125,72,0
370784,17,230,79,0
370794,17,236,78,0
370804,15,384,74,0
370814,16,366,75,0
370824,14,371,81,0
370834,12,261,76,0
370844,15,222,74,0
370854,12,159,68,0
370864,16,143,77,0
370875,11,203,70,0
370885,13,183,72,0
370895,10,191,70,0
370905,11,180,67,0
370915,14,173,75,0
370925,12,161,79,0
370935,14,255,81,0
370945,14,230,76,0
370955,12,244,70,0
370965,13,233,76,0
370975,12,212,69,0
370985,12,164,72,0
370995,13,182,73,0
371005,12,189,72,0
371015,13,170,85,0
371025,12,147,78,0
371035,13,199,72,0
371045,14,192,77,0
371055,12,199,74,0
371065,12,170,80,0
371075,16,135,72,0
371086,17,156,75,0
371096,14,138,77,0
371106,18,135,78,0
371116,13,196,83,0
371126,14,236,76,0
371136,13,204,71,0
371146,14,175,69,0
371156,11,152,68,0
371166,11,134,75,0
371176,12,144,79,0
371186,11,147,77,0
371196,13,193,70,0
371206,21,165,75,0
371216,23,198,83,0
371226,37,175,109,0
371236,63,241,92,0
371246,57,231,128,0
371256,67,218,129,0
371266,86,249,119,0
371276,72,211,106,0
371286,50,180,88,0
371297,42,152,86,0
371307,34,174,83,0
371317,30,162,88,0
371327,21,197,77,700
371337,17,234,79,0
371347,18,177,80,0
371357,17,155,75,0
371367,14,145,77,0
371377,13,147,78,0
371387,13,212,69,0
371397,17,181,64,0
371407,15,177,77,0
371417,14,153,69,0
371427,17,162,63,0
371437,17,121,65,0
371447,15,108,70,0
371457,11,115,69,0
371467,11,140,73,0
371477,13,132,67,0
371487,14,129,74,0
371497,12,148,81,0
371508,11,170,73,0
371518,11,194,77,0
371528,13,177,62,0
371538,15,150,75,0
371548,12,125,75,0
371558,11,116,71,0
371568,12,125,76,0
371578,9,134,72,0
371588,11,124,65,0
371598,10,148,67,0
371608,12,133,68,0
371618,11,120,76,0
371628,17,116,71,0
371638,13,111,77,0
371648,15,102,86,0
371658,17,125,73,0
371668,15,111,76,0
371678,16,160,70,0
371688,15,160,68,0
371698,17,179,66,0
371709,12,162,63,0
371719,11,148,61,0
371729,16,188,77,0
371739,11,192,77,0
371749,14,233,77,0
371759,17,175,84,0
371769,18,199,80,0
371779,14,176,68,0
371789,12,138,70,0
371799,15,163,77,0
371809,16,178,77,0
371819,13,263,74,0
371829,20,298,76,0
371839,21,235,91,0
371849,45,271,86,0
371859,67,353,93,0
371869,57,338,153,0
371879,78,498,121,0
371889,85,446,118,0
371899,65,354,114,0
371909,51,276,110,0
371920,38,235,94,0
371930,34,209,89,0
371940,27,267,85,0
371950,21,285,78,0
371960,22,332,77,0
371970,15,305,73,0
371980,17,228,69,0
371990,15,196,74,0
372000,14,183,81,0
372010,15,163,82,0
372020,13,138,79,0
372030,14,112,74,0
372040,18,102,79,0
372050,14,228,77,0
372060,14,208,79,0
372070,13,228,75,0
372080,14,210,75,0
372090,14,198,66,0
372100,16,182,76,0
372110,17,171,72,0
372120,14,207,68,0
372131,15,182,86,0
372141,12,295,85,0
372151,14,258,76,0
372161,14,244,85,0
372171,11,228,69,0
372181,13,242,73,0
372191,14,223,76,0
372201,15,230,78,0
372211,14,290,82,0
372221,11,286,70,0
372231,13,327,91,0
372241,17,354,85,0
372251,15,333,79,0
372261,16,404,84,0
372271,14,292,77,0
372281,14,274,76,0
372291,17,270,72,0
372301,16,259,72,0
372311,16,215,70,0
372321,15,171,78,0
372331,14,132,82,0
372342,16,108,84,0
372352,14,87,73,0
372362,14,127,71,0
372372,13,134,70,0
372382,14,201,76,0
372392,14,168,73,0
372402,14,183,83,0
372412,14,212,75,0
372422,14,234,80,0
372432,14,222,88,0
372442,16,262,94,0
372452,17,245,84,0
372462,19,301,98,0
372472,27,270,110,0
372482,62,318,105,0
372492,64,308,123,0
372502,60,356,143,0
372512,79,361,119,0
372522,78,334,104,0
372532,57,369,84,0
372542,45,396,87,0
372553,37,321,87,0
372563,27,331,97,0
372573,19,350,86,0
372583,18,283,91,0
372593,20,256,85,0
372603,15,246,84,0
372613,13,329,82,0
372623,15,257,76,0
372633,15,246,85,0
372643,14,221,78,0
372653,18,196,71,0
372663,17,224,68,0
372673,15,182,73,0
372683,18,181,78,0
372693,16,204,85,0
372703,11,238,85,0
372713,11,304,92,0
372723,12,263,86,0
372733,13,234,76,0
372743,13,220,78,0
372754,11,235,81,0
372764,17,221,84,0
372774,19,212,72,0
372784,16,239,80,0
372794,16,292,89,0
372804,15,275,97,0
372814,11,320,94,0
372824,11,279,94,0
372834,13,236,90,701
372844,14,170,79,0
372854,8,178,75,0
372864,16,189,67,0
372874,18,183,75,0
372884,16,186,76,0
372894,12,220,70,0
372904,12,200,71,0
372914,16,168,79,0
372924,15,224,72,0
372934,18,220,77,0
372944,18,268,91,0
372954,13,266,96,0
372965,13,275,94,0
372975,13,260,89,0
372985,14,342,81,0
372995,16,276,75,0
373005,14,292,76,0
373015,14,306,82,0
373025,14,305,73,0
373035,11,346,86,0
373045,12,335,80,0
373055,13,269,75,0
373065,14,205,74,0
373075,17,205,80,0
373085,24,191,89,0
373095,28,213,120,0
373105,55,197,123,0
373115,74,266,127,0
373125,65,218,153,0
373135,81,187,146,0
373145,86,223,127,0
373155,64,231,110,0
373165,47,184,103,0
373176,35,187,98,0
373186,27,182,91,0
373196,19,199,95,0
373206,20,187,88,0
373216,18,235,83,0
373226,16,274,77,0
373236,15,241,71,0
373246,12,270,78,0
373256,13,262,89,0
373266,8,345,87,0
373276,13,269,93,0
373286,13,235,92,0
373296,13,219,86,0
373306,13,225,76,0
373316,11,232,95,0
373326,12,231,96,0
373336,13,288,88,0
373346,10,306,99,0
373356,12,239,94,0
373366,14,291,106,0
373376,16,304,97,0
373387,15,379,90,0
373397,13,409,88,0
373407,15,350,90,0
373417,14,323,102,0
373427,12,280,90,0
373437,11,226,83,0
373447,14,228,87,0
373457,13,220,84,0
373467,16,269,93,0
373477,15,245,88,0
373487,17,283,82,0
373497,16,269,88,0
373507,17,292,86,0
373517,13,367,89,0
373527,13,324,83,0
373537,14,296,76,0
373547,14,312,82,0
373557,12,372,88,0
373567,14,346,82,0
373577,15,277,79,0
373587,15,269,76,0
373598,18,282,82,0
373608,17,288,88,0
373618,17,282,74,0
373628,16,263,76,0
373638,15,247,83,0
373648,16,225,74,0
373658,15,190,80,0
373668,14,201,83,0
373678,16,202,87,0
373688,20,193,82,0
373698,22,210,82,0
373708,21,190,95,0
373718,54,283,94,0
373728,68,295,97,0
373738,56,281,121,0
373748,76,319,111,0
373758,79,276,96,0
373768,57,274,93,0
373778,44,260,84,0
373788,38,229,82,0
373799,26,197,84,0
373809,24,202,79,0
373819,17,213,78,0
373829,14,198,77,0
373839,17,210,81,0
373849,12,199,79,0
373859,11,268,72,0
373869,15,246,70,0
373879,14,313,67,0
373889,16,241,72,0
373899,15,244,78,0
373909,16,225,86,0
373919,15,212,100,0
373929,15,198,82,0
373939,14,193,78,0
373949,13,194,75,0
373959,15,192,82,0
373969,11,197,89,0
373979,12,208,82,0
373989,18,207,77,0
373999,18,242,83,0
374010,14,275,75,0
374020,15,229,70,0
374030,13,222,76,0
374040,12,314,68,0
374050,12,317,84,0
374060,14,299,83,0
374070,11,279,80,0
374080,13,380,81,0
374090,11,351,77,0
374100,15,276,85,0
374110,14,280,87,0
374120,10,230,85,0
374130,15,230,86,0
374140,14,280,80,0
374150,19,393,83,0
374160,15,327,82,0
374170,14,301,79,0
374180,15,249,78,0
374190,13,276,76,0
374200,14,246,71,0
374210,13,211,75,0
374221,14,229,69,0
374231,16,205,82,0
374241,13,209,78,0
374251,16,196,89,0
374261,11,176,81,0
374271,15,158,78,0
374281,14,231,83,0
374291,16,234,84,0
374301,22,189,81,0
374311,26,232,101,0
374321,57,242,94,0
374331,55,296,135,0
374341,56,232,152,0
374351,73,240,123,0
374361,69,219,105,0
374371,51,276,92,0
374381,41,352,84,0
374391,31,318,87,0
374401,25,362,88,0
374411,19,351,84,0
374421,17,303,90,0
374432,15,292,83,0
374442,13,265,81,0
374452,14,301,76,0
374462,13,302,71,0
374472,18,303,71,0
374482,17,349,73,0
374492,16,349,77,0
374502,16,328,76,0
374512,14,254,75,0
374522,15,208,68,0
374532,12,206,72,0
374542,16,179,73,0
374552,15,237,76,0
374562,15,259,66,0
374572,15,360,65,0
374582,17,400,67,0
374592,19,360,70,0
374602,15,382,71,0
374612,12,305,69,0
374622,14,301,64,0
374632,14,281,73,0
374643,13,246,85,0
374653,15,260,76,0
374663,11,220,71,0
374673,12,216,70,0
374683,15,243,78,0
374693,14,235,81,0
374703,12,411,77,0
374713,14,433,80,0
374723,17,426,75,0
374733,19,506,82,0
374743,14,404,83,0
374753,16,371,80,0
374763,12,284,78,0
374773,12,246,70,0
374783,15,341,71,0
374793,17,324,75,0
374803,17,267,74,0
374813,16,326,79,0
374823,15,248,83,0
374833,15,235,81,0
374844,19,380,76,0
374854,17,356,69,0
374864,11,311,70,0
374874,12,285,72,0
374884,17,272,86,0
374894,17,221,85,0
374904,17,306,86,0
374914,43,287,95,0
374924,66,274,88,0
374934,54,272,141,0
374944,73,274,131,0
374954,83,249,113,0
374964,64,262,106,0
374974,48,297,96,0
374984,41,264,88,0
374994,29,301,90,0
375004,28,256,83,0
375014,24,321,89,0
375024,17,260,87,0
375034,16,255,83,0
375044,13,220,80,0
375055,16,182,66,0
375065,16,223,70,0
375075,13,268,64,0
375085,15,309,71,0
375095,13,277,70,0
375105,12,246,73,0
375115,15,239,69,0
375125,14,266,74,0
375135,13,286,72,0
375145,15,260,67,0
375155,14,223,74,0
375165,12,285,70,0
375175,14,269,83,0
375185,16,301,83,0
375195,17,318,76,0
375205,16,274,77,0
375215,11,254,78,0
375225,12,299,78,0
375235,12,269,86,0
375245,14,255,81,0
375255,16,280,82,0
375266,14,259,90,0
375276,14,229,79,0
375286,18,308,77,0
375296,17,280,78,0
375306,15,364,75,0
375316,14,316,80,0
375326,13,301,72,0
375336,15,270,66,0
375346,13,310,71,0
375356,16,329,74,0
375366,15,265,82,0
375376,15,276,81,0
375386,14,335,80,0
375396,13,312,72,0
375406,15,325,78,0
375416,16,275,77,0
375426,16,255,80,0
375436,16,260,79,0
375446,12,288,80,0
375456,12,280,77,0
375466,13,325,94,0
375477,15,269,86,0
375487,21,290,75,0
375497,20,269,89,0
375507,39,305,106,0
375517,64,287,102,0
375527,56,281,136,0
375537,74,323,120,0
375547,83,265,107,0
375557,68,239,97,0
375567,48,275,99,0
375577,36,264,89,0
375587,30,280,76,0
375597,21,311,71,0
375607,15,280,68,0
375617,17,224,82,0
375627,17,276,81,0
375637,17,247,73,0
375647,16,285,68,0
375657,14,301,67,0
375667,11,336,79,0
375677,14,335,84,0
375688,11,300,76,0
375698,12,314,86,0
375708,14,267,81,0
375718,11,336,79,0
375728,13,300,74,0
375738,16,235,67,0
375748,11,307,77,0
375758,13,325,85,0
375768,13,313,89,0
375778,11,263,75,0
375788,14,250,68,0
375798,15,216,70,0
375808,17,234,82,0
375818,15,203,78,0
375828,17,250,74,702
375838,16,224,76,0
375848,12,263,74,0
375858,11,315,62,0
375868,15,394,63,0
375878,15,347,60,0
375889,14,372,60,0
375899,14,338,71,0
375909,16,380,74,0
375919,15,333,76,0
375929,13,340,83,0
375939,14,382,88,0
375949,17,375,91,0
375959,14,389,90,0
375969,14,367,79,0
375979,17,391,81,0
375989,15,306,80,0
375999,15,294,88,0
376009,15,270,82,0
376019,15,221,81,0
376029,15,247,80,0
376039,15,298,79,0
376049,16,232,78,0
376059,15,261,74,0
376069,12,294,81,0
376079,21,304,83,0
376089,25,279,85,0
376100,24,396,82,0
376110,55,324,82,0
376120,68,289,88,0
376130,62,256,119,0
376140,81,259,113,0
376150,82,205,107,0
376160,56,298,95,0
376170,45,342,90,0
376180,33,324,86,0
376190,26,318,92,0
376200,22,360,89,0
376210,21,315,86,0
376220,19,345,74,0
376230,21,356,81,0
376240,18,297,81,0
376250,19,391,79,0
376260,18,387,83,0
376270,17,312,73,0
376280,15,296,73,0
376290,16,336,73,0
376300,14,384,76,0
376311,12,336,77,0
376321,14,362,72,0
376331,12,287,71,0
376341,16,316,79,0
376351,13,279,82,0
376361,16,275,88,0
376371,15,270,82,0
376381,16,351,75,0
376391,13,344,76,0
376401,12,326,85,0
376411,12,294,87,0
376421,12,318,75,0
376431,16,293,76,0
376441,10,276,71,0
376451,11,238,79,0
376461,13,354,78,0
376471,14,298,75,0
376481,14,289,77,0
376491,14,239,81,0
376501,15,210,78,0
376511,15,222,73,0
376522,16,214,84,0
376532,13,229,89,0
376542,12,263,95,0
376552,14,251,89,0
376562,13,265,87,0
376572,14,225,76,0
376582,15,250,76,0
376592,14,254,73,0
376602,15,243,77,0
376612,14,248,66,0
376622,16,291,68,0
376632,16,288,77,0
376642,14,281,86,0
376652,14,267,90,0
376662,14,222,79,0
376672,13,243,80,0
376682,22,280,89,0
376692,22,253,88,0
376702,27,244,94,0
376712,60,254,99,0
376722,61,250,104,0
376733,63,289,136,0
376743,80,277,111,0
376753,72,320,91,0
376763,50,324,89,0
376773,42,376,80,0
376783,34,350,83,0
376793,28,355,80,0
376803,26,385,81,0
376813,21,318,82,0
376823,19,313,77,0
376833,18,326,72,0
376843,17,277,68,0
376853,14,269,79,0
376863,14,272,79,0
376873,15,276,80,0
376883,13,273,90,0
376893,14,326,91,0
376903,14,246,82,0
376913,16,314,76,0
376923,12,321,66,0
376934,13,299,69,0
376944,14,336,67,0
376954,15,354,71,0
376964,17,288,77,0
376974,17,270,77,0
376984,17,228,76,0
376994,13,196,80,0
377004,14,173,76,0
377014,12,256,76,0
377024,16,271,83,0
377034,16,291,90,0
377044,16,240,97,0
377054,13,210,82,0
377064,12,262,90,0
377074,14,308,87,0
377084,17,265,84,0
377094,19,249,81,0
377104,18,269,87,0
377114,14,313,82,0
377124,17,266,84,0
377134,14,311,77,0
377145,11,224,79,0
377155,15,207,83,0
377165,17,283,86,0
377175,14,331,94,0
377185,18,401,90,0
377195,18,371,87,0
377205,14,283,77,0
377215,14,343,82,0
377225,18,259,83,0
377235,19,267,81,0
377245,12,270,72,0
377255,17,316,72,0
377265,16,321,79,0
377275,15,297,77,0
377285,22,326,75,0
377295,19,328,94,0
377305,42,271,103,0
377315,66,312,102,0
377325,57,378,143,0
377335,69,358,141,0
377345,80,330,115,0
377356,63,448,107,0
377366,44,363,106,0
377376,37,475,94,0
377386,31,512,90,0
377396,28,418,84,0
377406,22,300,80,0
377416,17,313,84,0
377426,20,282,79,0
377436,15,277,79,0
377446,13,258,81,0
377456,12,212,77,0
377466,12,197,81,0
377476,14,217,85,0
377486,12,201,75,0
377496,14,268,74,0
377506,10,255,69,0
377516,13,243,77,0
377526,14,207,75,0
377536,12,253,77,0
377546,15,304,71,0
377556,14,257,72,0
377567,14,317,81,0
377577,12,333,76,0
377587,16,339,79,0
377597,11,276,80,0
377607,12,267,79,0
377617,16,303,81,0
377627,13,251,82,0
377637,12,239,68,0
377647,12,236,78,0
377657,13,230,78,0
377667,11,284,79,0
377677,13,282,67,0
377687,14,245,73,0
377697,12,242,79,0
377707,13,247,75,0
377717,14,284,85,0
377727,12,336,81,0
377737,13,315,81,0
377747,17,266,86,0
377757,15,243,85,0
377767,14,241,82,0
377778,15,277,84,0
377788,13,243,73,0
377798,16,257,77,0
377808,14,264,75,0
377818,14,281,77,0
377828,15,278,77,0
377838,11,291,87,1001
377848,11,334,91,0
377858,14,266,90,0
377868,14,234,79,0
377878,14,249,67,0
377888,14,242,66,0
377898,21,234,69,0
377908,25,273,98,0
377918,60,211,99,0
377928,62,212,109,0
377938,58,196,130,0
377948,80,167,114,0
377958,75,182,101,0
377968,51,234,97,0
377979,40,196,97,0
377989,29,193,89,0
377999,26,273,83,0
378009,22,205,77,0
378019,20,269,81,0
378029,17,232,85,0
378039,14,234,78,0
378049,13,211,77,0
378059,12,209,73,0
378069,14,260,79,0
378079,14,387,72,0
378089,13,314,75,0
378099,14,376,83,0
378109,15,294,76,0
378119,16,285,75,0
378129,17,247,78,0
378139,12,205,67,0
378149,13,183,76,0
378159,13,161,70,0
378169,17,182,72,0
378179,12,163,76,0
378190,13,223,72,0
378200,12,240,86,0
378210,12,337,78,0
378220,13,271,78,0
378230,15,290,83,0
378240,13,237,75,0
378250,11,204,79,0
378260,14,264,84,0
378270,16,278,81,0
378280,11,287,75,0
378290,13,282,78,0
378300,10,300,69,0
378310,10,251,70,0
378320,11,238,80,0
378330,13,246,76,0
378340,18,238,69,0
378350,16,206,77,0
378360,14,208,79,0
378370,16,184,75,0
378380,12,263,75,0
378390,15,239,78,0
378401,11,226,79,0
378411,17,259,69,0
378421,17,239,71,0
378431,18,247,70,0
378441,13,222,64,0
378451,15,200,72,0
378461,11,194,73,0
378471,15,193,71,0
378481,13,257,76,0
378491,14,308,78,0
378501,18,249,75,0
378511,17,205,82,0
378521,29,207,87,0
378531,59,239,99,0
378541,57,234,125,0
378551,61,229,130,0
378561,82,245,114,0
378571,76,251,99,0
378581,53,279,101,0
378591,40,206,94,0
378601,29,178,83,0
378612,25,150,74,0
378622,19,204,71,0
378632,15,199,72,0
378642,14,199,70,0
378652,14,249,76,0
378662,13,220,81,0
378672,14,165,73,0
378682,17,135,82,0
378692,12,212,73,0
378702,11,267,73,0
378712,15,247,77,0
378722,13,244,74,0
378732,15,261,68,0
378742,15,266,69,0
378752,15,230,68,0
378762,15,184,68,0
378772,17,170,63,0
378782,17,180,72,0
378792,14,267,80,0
378802,13,280,76,0
378812,12,241,77,0
378823,14,226,78,0
378833,12,232,80,0
378843,11,180,76,0
378853,9,227,74,0
378863,12,247,73,0
378873,9,250,72,0
378883,9,307,69,0
378893,11,278,68,0
378903,14,295,66,0
378913,15,255,69,0
378923,12,219,70,0
378933,14,207,81,0
378943,15,167,75,0
378953,11,143,66,0
378963,9,150,75,0
378973,12,154,71,0
378983,15,162,73,0
378993,17,167,72,0
379003,17,157,58,0
379013,13,152,73,0
379024,13,170,68,0
379034,15,169,78,0
379044,13,217,74,0
379054,15,180,72,0
379064,12,163,75,0
379074,12,213,72,0
379084,14,337,77,1000
379094,14,291,75,800
379104,15,399,72,0
379114,19,327,70,0
379124,22,296,89,0
379134,25,246,107,0
379144,57,299,100,0
379154,64,294,121,0
379164,57,373,150,0
379174,80,364,126,0
379184,79,296,108,0
379194,56,222,108,0
379204,39,215,99,0
379214,33,215,86,0
379224,22,205,83,0
379235,21,212,79,0
379245,16,196,77,0
379255,16,181,81,0
379265,17,170,78,0
379275,15,149,80,0
379285,15,149,84,0
379295,17,159,81,0
379305,14,192,73,0
379315,14,156,78,0
379325,11,160,81,0
379335,9,143,83,0
379345,12,134,77,0
379355,11,199,72,0
379365,14,209,75,0
379375,15,175,69,0
379385,15,205,78,0
379395,13,190,73,0
379405,12,173,73,0
379415,12,177,81,0
379425,19,187,77,0
379435,17,159,87,0
379446,15,149,78,0
379456,18,152,76,0
379466,15,150,67,0
379476,15,199,69,0
379486,12,258,80,0
379496,15,270,70,0
379506,14,237,70,0
379516,14,201,82,0
379526,13,186,68,0
379536,15,158,77,0
379546,12,252,78,0
379556,12,241,84,0
379566,14,251,85,0
379576,15,232,79,0
379586,15,204,72,0
379596,15,200,66,0
379606,14,155,76,0
379616,10,220,79,0
379626,15,194,74,0
379636,9,281,69,0
379646,12,226,70,0
379657,12,218,71,0
379667,15,208,72,0
379677,14,209,71,0
379687,14,233,62,0
379697,11,218,68,0
379707,14,222,68,0
379717,13,200,71,0
379727,20,177,71,0
379737,19,220,74,0
379747,33,191,99,0
379757,62,169,103,0
379767,61,173,124,0
379777,65,238,133,0
379787,85,211,119,0
379797,77,197,104,0
379807,52,142,101,0
379817,45,198,103,0
379827,36,201,98,0
379837,25,216,83,0
379847,21,228,90,0
379857,19,226,82,0
379868,17,189,84,0
379878,16,213,79,0
379888,16,251,79,0
379898,17,224,79,0
379908,13,295,84,0
379918,13,269,87,0
379928,13,285,88,0
379938,14,309,79,0
379948,15,350,77,0
379958,15,306,76,0
379968,15,349,66,0
379978,14,299,67,0
379988,14,230,62,0
379998,13,258,67,0
380008,15,248,69,0
380018,13,237,76,0
380028,13,277,74,0
380038,13,269,69,0
380048,16,291,76,0
380058,12,350,75,0
380069,14,281,79,0
380079,15,296,77,0
380089,13,352,70,0
380099,15,290,73,0
380109,14,261,72,0
380119,13,298,72,0
380129,15,347,70,0
380139,15,350,72,0
380149,13,339,71,0
380159,15,326,69,0
380169,14,290,65,0
380179,11,291,71,0
380189,11,235,67,0
380199,14,226,71,0
380209,11,204,65,0
380219,15,196,66,0
380229,14,219,75,0
380239,19,307,72,0
380249,14,267,73,0
380259,16,352,66,0
380269,14,324,58,0
380280,15,374,64,0
380290,12,316,68,0
380300,14,294,78,0
380310,13,239,82,0
380320,13,213,88,0
380330,12,210,90,0
380340,18,287,88,0
380350,22,307,90,0
380360,45,315,95,0
380370,71,238,94,0
380380,56,196,144,0
380390,76,169,128,0
380400,83,166,122,0
380410,63,196,124,0
380420,50,208,95,0
380430,38,250,81,0
380440,30,249,71,0
380450,22,223,72,0
380460,18,254,71,0
380470,18,198,73,0
380480,17,201,70,0
380491,16,179,81,0
380501,15,169,83,0
380511,13,365,86,0
380521,13,327,83,0
380531,12,343,73,0
380541,10,373,81,0
380551,11,374,79,0
380561,11,333,73,0
380571,13,285,69,0
380581,13,270,75,0
380591,14,268,68,801
380601,10,287,76,0
380611,15,347,71,0
380621,16,306,75,0
380631,18,380,85,0
380641,16,286,74,0
380651,11,247,79,0
380661,10,338,79,0
380671,12,269,78,0
380681,13,282,88,0
380691,14,292,77,0
380702,14,334,83,0
380712,16,276,82,0
380722,18,219,92,0
380732,17,364,88,0
380742,14,359,83,0
380752,14,296,84,0
380762,12,311,90,0
380772,16,348,85,0
380782,15,340,80,0
380792,12,364,86,0
380802,16,308,81,0
380812,13,270,87,0
380822,12,353,79,0
380832,18,280,78,0
380842,14,311,81,0
380852,15,257,79,0
380862,12,257,82,0
380872,15,207,75,0
380882,15,254,86,0
380892,14,279,78,0
380902,11,245,78,0
380913,16,232,83,0
380923,12,213,85,0
380933,12,258,80,0
380943,17,225,76,0
380953,21,271,72,0
380963,23,278,81,0
380973,53,381,95,0
380983,64,271,105,0
380993,58,242,123,0
381003,75,305,112,0
381013,81,244,100,0
381023,62,237,105,0
381033,48,216,84,0
381043,36,283,90,0
381053,30,282,74,0
381063,23,251,71,0
381073,19,239,64,0
381083,16,416,71,0
381093,15,366,71,0
381103,11,309,70,0
381114,11,330,78,0
381124,12,295,86,0
381134,14,334,81,0
381144,14,333,72,0
381154,11,314,71,0
381164,12,303,82,0
381174,12,267,78,0
381184,13,341,80,0
381194,12,384,80,0
381204,12,338,75,0
381214,14,329,90,0
381224,12,324,88,0
381234,16,264,82,0
381244,13,399,93,0
381254,15,357,84,0
381264,13,297,83,0
381274,14,228,91,0
381284,14,276,84,0
381294,13,334,83,0
381304,13,267,80,0
381314,13,209,89,0
381325,16,190,75,0
381335,14,198,71,0
381345,18,199,84,0
381355,16,204,92,0
381365,17,250,84,0
381375,16,222,81,0
381385,15,210,79,0
381395,13,195,73,0
381405,13,201,70,0
381415,12,192,78,0
381425,11,196,82,0
381435,13,177,80,0
381445,15,234,90,0
381455,15,232,85,0
381465,12,200,93,0
381475,15,183,79,0
381485,16,242,80,0
381495,15,237,67,0
381505,13,233,73,0
381515,13,275,78,0
381525,15,286,69,0
381536,15,296,72,0
381546,15,262,82,0
381556,19,242,81,0
381566,21,252,86,0
381576,36,295,97,0
381586,71,256,115,0
381596,60,282,126,0
381606,69,308,116,0
381616,88,272,97,0
381626,71,286,93,0
381636,50,259,78,0
381646,39,281,83,0
381656,32,233,94,0
381666,24,271,88,0
381676,19,329,71,0
381686,18,313,81,0
381696,18,298,73,0
381706,12,305,78,0
381716,14,278,84,0
381726,13,273,76,0
381736,13,315,83,0
381747,14,271,76,0
381757,14,226,81,0
381767,16,252,84,0
381777,12,291,80,0
381787,14,256,70,0
381797,12,272,64,0
381807,12,287,71,0
381817,13,261,80,0
381827,13,300,72,0
381837,14,389,80,0
381847,14,339,82,0
381857,13,300,89,0
381867,13,245,87,0
381877,15,220,93,0
381887,14,255,74,0
381897,14,212,71,0
381907,15,196,81,0
381917,12,196,81,0
381927,15,266,84,0
381937,12,262,86,0
381947,14,270,87,0
381958,12,239,92,0
381968,10,196,94,0
381978,12,368,91,0
381988,11,347,95,0
381998,15,379,93,0
382008,14,290,92,0
382018,12,282,90,0
382028,16,252,85,0
382038,16,322,77,0
382048,14,265,80,0
382058,12,263,77,0
382068,13,209,88,0
382078,11,206,89,0
382088,15,207,72,0
382098,13,236,84,0
382108,14,195,76,0
382118,18,297,81,0
382128,17,242,77,0
382138,16,305,79,0
382148,23,281,80,0
382159,18,272,83,0
382169,35,216,91,0
382179,60,210,101,0
382189,56,246,123,0
382199,62,214,118,0
382209,78,222,111,0
382219,67,302,99,0
382229,51,251,99,0
382239,39,242,96,0
382249,27,202,103,0
382259,24,224,89,0
382269,19,207,94,0
382279,17,181,96,0
382289,17,192,90,0
382299,15,152,95,0
382309,15,164,85,0
382319,13,251,80,0
382329,13,277,76,0
382339,12,262,76,0
382349,13,258,78,0
382359,15,233,75,0
382370,12,226,80,0
382380,11,187,84,0
382390,11,170,80,0
382400,12,241,78,0
382410,9,253,73,0
382420,14,269,69,0
382430,13,235,74,0
382440,14,245,79,0
382450,14,275,82,0
382460,12,310,70,0
382470,14,253,74,0
382480,12,236,79,0
382490,15,236,81,0
382500,16,235,85,0
382510,13,260,84,0
382520,17,248,76,0
382530,15,248,71,0
382540,11,270,72,0
382550,14,205,70,0
382560,13,220,67,0
382570,15,246,72,0
382581,10,218,76,0
382591,14,221,90,0
382601,14,167,98,0
382611,17,254,109,0
382621,16,255,98,0
382631,14,286,94,0
382641,20,224,84,0
382651,18,209,78,0
382661,17,244,92,0
382671,18,264,92,0
382681,17,239,102,0
382691,13,240,103,0
382701,13,226,95,0
382711,14,302,99,0
382721,12,249,101,0
382731,21,295,100,0
382741,23,264,99,0
382751,23,242,102,0
382761,54,283,107,0
382771,70,366,112,0
382781,57,313,139,0
382792,73,345,119,0
382802,80,324,100,0
382812,57,243,101,0
382822,50,239,99,0
382832,41,214,98,0
382842,30,212,95,0
382852,26,260,93,0
382862,20,300,82,0
382872,20,277,79,0
382882,18,249,97,0
382892,14,227,88,0
382902,18,188,80,0
382912,16,182,74,0
382922,13,210,80,0
382932,18,223,82,0
382942,12,264,83,0
382952,10,243,66,0
382962,12,366,78,0
382972,9,375,78,0
382982,12,329,83,0
382992,15,268,81,0
383003,11,241,66,0
383013,13,270,74,0
383023,14,290,84,0
383033,19,373,85,0
383043,16,305,81,0
383053,17,294,82,0
383063,17,258,82,0
383073,15,242,86,0
383083,13,244,76,0
383093,14,227,82,0
383103,13,193,81,0
383113,14,217,86,0
383123,14,220,96,0
383133,11,177,98,0
383143,14,231,93,0
383153,12,248,99,0
383163,12,325,80,0
383173,15,283,82,0
383183,15,264,87,0
383193,17,298,80,0
383204,15,218,66,0
383214,17,243,73,0
383224,15,232,74,0
383234,17,233,74,0
383244,15,200,74,0
383254,12,232,71,0
383264,16,270,83,0
383274,15,500,83,0
383284,17,430,91,0
383294,16,413,79,0
383304,18,379,71,0
383314,16,342,89,0
383324,21,293,85,0
383334,20,246,103,0
383344,34,238,100,0
383354,63,284,91,0
383364,58,307,136,0
383374,63,295,153,0
383384,83,288,131,0
383394,70,307,133,0
383404,50,238,111,0
383415,39,234,96,0
383425,32,236,81,0
383435,22,296,86,0
383445,21,252,86,0
383455,19,274,87,0
383465,16,215,95,0
383475,13,199,91,0
383485,13,237,88,0
383495,10,266,92,0
383505,14,237,90,0
383515,14,217,90,0
383525,12,190,92,0
383535,12,239,81,0
383545,14,278,80,0
383555,14,243,82,0
383565,14,226,79,0
383575,10,199,91,0
383585,11,219,95,802
383595,12,209,89,0
383605,15,264,86,0
383615,13,248,81,0
383626,14,278,74,0
383636,15,247,74,0
383646,15,249,80,0
383656,18,240,72,0
383666,18,249,81,0
383676,18,335,79,0
383686,17,295,74,0
383696,15,362,74,0
383706,17,357,81,0
383716,19,351,93,0
383726,17,288,82,0
383736,16,277,88,0
383746,15,242,83,0
383756,15,214,70,0
383766,14,218,75,0
383776,12,239,91,0
383786,15,251,87,0
383796,15,298,91,0
383806,14,273,73,0
383816,15,258,83,0
383826,15,261,90,0
383837,16,271,99,0
383847,15,263,95,0
383857,15,215,92,0
383867,12,206,102,0
383877,13,211,94,0
383887,11,254,93,0
383897,15,216,88,0
383907,15,297,99,0
383917,19,305,93,0
383927,24,259,90,0
383937,54,280,100,0
383947,74,312,132,0
383957,62,265,179,0
383967,87,241,151,0
383977,90,278,130,0
383987,61,316,111,0
383997,49,337,98,0
384007,38,349,91,0
384017,24,486,94,0
384027,23,416,94,0
384037,19,455,87,0
384048,17,509,89,0
384058,16,470,84,0
384068,14,372,86,0
384078,12,279,85,0
384088,13,262,73,0
384098,14,260,80,0
384108,14,266,89,0
384118,16,247,86,0
384128,13,249,85,0
384138,14,207,78,0
384148,15,190,89,0
384158,11,242,81,0
384168,14,248,91,0
384178,15,288,101,0
384188,15,273,90,0
384198,13,246,100,0
384208,15,215,91,0
384218,14,253,82,0
384228,11,262,92,0
384238,17,209,92,0
384249,13,206,92,0
384259,13,192,86,0
384269,13,177,77,0
384279,11,182,80,0
384289,12,267,89,0
384299,15,220,93,0
384309,14,267,92,0
384319,11,244,90,0
384329,14,240,84,0
384339,10,239,84,0
384349,11,228,86,0
384359,15,250,72,0
384369,14,232,77,0
384379,14,192,86,0
384389,13,186,84,0
384399,14,196,94,0
384409,14,189,94,0
384419,13,276,80,0
384429,14,299,85,0
384439,15,230,77,0
384449,16,238,70,0
384460,13,182,73,0
384470,11,137,72,0
384480,14,236,73,0
384490,12,202,80,0
384500,16,205,79,0
384510,21,177,80,0
384520,26,158,94,0
384530,56,238,93,0
384540,67,226,117,0
384550,62,202,139,0
384560,82,170,121,0
384570,84,160,105,0
384580,59,198,96,0
384590,44,172,104,0
384600,37,176,95,0
384610,28,221,86,0
384620,22,276,81,0
384630,24,214,81,0
384640,18,210,71,0
384650,18,190,67,0
384660,19,170,78,0
384671,17,157,72,0
384681,14,137,82,0
384691,12,112,67,0
384701,13,92,67,0
384711,14,82,69,0
384721,17,77,77,0
384731,14,69,74,0
384741,14,68,71,0
384751,11,76,75,0
384761,15,77,71,0
384771,13,79,69,0
384781,14,79,75,0
384791,13,85,71,0
384801,15,74,67,0
384811,15,75,93,0
384821,15,71,80,0
384831,12,78,86,0
384841,14,78,81,0
384851,16,67,91,0
384861,14,77,88,0
384871,14,75,84,0
384882,19,77,83,0
384892,16,69,76,0
384902,14,69,74,0
384912,13,66,73,0
384922,13,82,70,0
384932,11,75,76,0
384942,15,64,69,0
384952,14,60,65,0
384962,13,69,61,0
384972,13,78,66,0
384982,14,71,79,0
384992,13,67,80,0
385002,14,66,75,0
385012,13,63,74,0
385022,15,74,80,0
385032,12,80,73,0
385042,11,72,66,0
385052,14,74,66,0
385062,12,73,74,0
385072,12,69,74,0
385082,12,69,74,0
385093,16,74,82,0
385103,21,71,76,0
385113,21,56,74,0
385123,43,64,102,0
385133,64,63,92,0
385143,53,58,112,0
385153,69,85,119,0
385163,87,101,103,0
385173,68,83,88,0
385183,48,86,85,0
385193,36,68,82,0
385203,30,60,76,0
385213,23,67,71,0
385223,23,68,72,0
385233,20,73,66,0
385243,18,72,73,0
385253,15,69,74,0
385263,16,58,72,0
385273,16,61,81,0
385283,15,64,82,0
385293,13,62,71,0
385304,15,55,69,0
385314,18,61,75,0
385324,16,57,70,0
385334,15,70,76,0
385344,14,59,74,0
385354,11,62,65,0
385364,13,63,74,0
385374,14,71,78,0
385384,13,65,81,0
385394,13,63,83,0
385404,13,71,74,0
385414,16,73,85,0
385424,13,72,70,0
385434,12,68,70,0
385444,14,68,71,0
385454,14,67,69,0
385464,16,69,83,0
385474,17,62,79,0
385484,17,63,77,0
385494,14,64,69,0
385505,13,59,71,0
385515,17,76,74,0
385525,12,74,84,0
385535,15,85,70,0
385545,16,102,70,0
385555,11,91,71,0
385565,13,168,74,0
385575,10,150,70,0
385585,11,258,61,0
385595,13,289,69,0
385605,16,230,71,1001
385615,13,183,68,0
385625,16,146,68,0
385635,15,128,62,0
385645,15,109,64,0
385655,13,113,65,0
385665,13,109,59,0
385675,17,107,69,0
385685,12,105,67,0
385695,12,106,71,0
385705,16,96,72,0
385716,22,88,82,0
385726,27,91,93,0
385736,57,86,90,0
385746,70,105,119,0
385756,66,113,149,0
385766,87,114,128,0
385776,83,145,114,0
385786,62,131,106,0
385796,41,111,91,0
385806,36,106,87,0
385816,30,91,89,0
385826,23,88,80,0
385836,18,89,74,0
385846,15,76,82,0
385856,14,86,77,0
385866,15,113,75,0
385876,11,106,68,0
385886,13,95,74,0
385896,12,94,72,0
385906,14,121,68,0
385916,14,123,69,0
385927,13,173,72,0
385937,13,131,73,0
385947,14,104,76,0
385957,15,85,78,0
385967,14,99,74,0
385977,16,88,81,0
385987,13,102,92,0
385997,16,119,92,0
386007,15,175,77,0
386017,16,173,71,0
386027,14,124,76,0
386037,17,114,73,0
386047,14,101,85,0
386057,16,99,78,0
386067,13,88,70,0
386077,14,96,64,0
386087,13,81,72,0
386097,16,91,83,0
386107,14,83,77,0
386117,11,87,73,0
386127,17,86,77,0
386138,17,110,82,0
386148,16,105,80,0
386158,15,125,76,0
386168,13,109,73,0
386178,13,114,79,0
386188,12,100,73,0
386198,16,92,76,0
386208,14,126,74,0
386218,16,133,79,0
386228,18,116,84,0
386238,19,97,78,0
386248,16,90,78,0
386258,16,88,75,0
386268,16,92,75,0
386278,16,89,76,0
386288,13,91,72,0
386298,14,140,75,0
386308,15,146,81,0
386318,20,172,79,0
386328,21,162,74,0
386338,29,156,84,0
386349,61,157,93,0
386359,67,128,113,0
386369,60,118,128,0
386379,81,128,109,0
386389,75,112,104,0
386399,55,112,100,0
386409,37,96,84,0
386419,25,91,78,0
386429,21,81,86,0
386439,21,84,86,0
386449,16,119,81,0
386459,15,107,73,0
386469,19,141,77,0
386479,17,134,77,0
386489,16,117,76,0
386499,16,107,75,0
386509,15,119,78,0
386519,14,148,71,0
386529,14,131,68,0
386539,14,145,67,0
386549,15,116,61,0
386560,14,95,70,0
386570,15,80,70,0
386580,12,82,75,0
386590,15,76,74,0
386600,13,68,73,0
386610,13,74,69,0
386620,14,79,74,0
386630,12,91,84,0
386640,11,130,78,0
386650,11,114,78,0
386660,13,112,83,0
386670,14,94,77,0
386680,15,135,79,0
386690,14,114,82,0
386700,14,108,80,0
386710,12,95,76,0
386720,14,93,75,0
386730,14,140,86,0
386740,11,125,78,0
386750,11,165,69,0
386761,11,155,72,0
386771,16,123,72,0
386781,12,117,69,0
386791,15,103,70,0
386801,12,83,67,0
386811,15,65,71,0
386821,16,71,80,0
386831,17,128,73,0
386841,12,112,72,0
386851,16,129,69,0
386861,15,134,73,0
386871,15,124,82,0
386881,17,127,86,0
386891,14,102,73,0
386901,14,94,68,0
386911,16,77,75,0
386921,18,86,73,0
386931,17,129,73,0
386941,22,136,79,0
386951,23,188,87,0
386961,52,152,94,0
386972,74,154,105,0
386982,58,133,135,0
386992,81,146,115,0
387002,92,134,115,0
387012,67,109,99,0
387022,50,100,91,0
387032,38,91,74,0
387042,30,91,79,0
387052,23,99,83,0
387062,18,85,84,0
387072,15,75,81,0
387082,12,81,81,0
387092,16,81,83,0
387102,17,100,75,0
387112,15,103,70,0
387122,18,91,64,0
387132,17,82,63,0
387142,13,75,68,0
387152,16,67,68,0
387162,17,73,78,0
387172,14,87,70,0
387183,16,90,69,0
387193,14,81,71,0
387203,14,79,68,0
387213,18,84,81,0
387223,17,87,79,0
387233,15,98,87,0
387243,14,115,85,0
387253,13,101,77,0
387263,14,107,79,0
387273,13,101,81,0
387283,16,92,79,0
387293,14,75,79,0
387303,13,68,74,0
387313,16,77,75,0
387323,14,76,75,0
387333,13,68,71,0
387343,14,66,67,0
387353,13,77,74,0
387363,13,79,77,0
387373,16,86,79,0
387383,15,113,74,0
387394,13,115,70,0
387404,15,147,72,0
387414,15,124,74,0
387424,18,109,89,0
387434,16,91,88,0
387444,14,85,83,0
387454,16,85,78,0
387464,16,93,77,0
387474,13,92,74,0
387484,11,95,73,0
387494,15,112,88,0
387504,14,105,86,0
387514,12,107,81,0
387524,13,105,65,0
387534,15,98,74,0
387544,17,84,70,0
387554,18,80,70,0
387564,19,72,78,0
387574,28,80,96,0
387584,60,106,77,1000
387594,61,111,122,700
387605,61,104,132,0
387615,83,104,119,0
387625,74,92,108,0
387635,54,80,97,0
387645,41,80,92,0
387655,36,72,86,0
387665,26,86,87,0
387675,22,84,84,0
387685,19,98,85,0
387695,18,98,87,0
387705,17,80,80,0
387715,17,83,74,0
387725,15,101,78,0
387735,16,106,71,0
387745,13,105,78,0
387755,13,140,69,0
387765,11,107,72,0
387775,13,119,78,0
387785,14,108,81,0
387795,17,124,78,0
387805,15,108,76,0
387816,16,96,74,0
387826,15,80,72,0
387836,14,69,70,0
387846,15,81,85,0
387856,14,76,85,0
387866,14,71,89,0
387876,13,65,76,0
387886,14,66,67,0
387896,14,68,78,0
387906,18,70,81,0
387916,16,71,76,0
387926,17,79,76,0
387936,11,81,89,0
387946,13,88,93,0
387956,12,86,90,0
387966,11,167,91,0
387976,13,177,87,0
387986,12,195,84,0
387996,13,178,73,0
388006,15,184,74,0
388016,16,142,70,0
388027,14,146,76,0
388037,12,146,70,0
388047,13,125,76,0
388057,16,109,81,0
388067,17,97,71,0
388077,17,81,78,0
388087,16,75,72,0
388097,14,73,66,0
388107,19,77,73,0
388117,17,71,69,0
388127,14,77,68,0
388137,11,75,75,0
388147,13,68,78,0
388157,14,66,84,0
388167,12,61,81,0
388177,22,70,70,0
388187,17,70,82,0
388197,38,99,85,0
388207,65,92,84,0
388217,53,89,112,0
388228,71,84,110,0
388238,85,79,89,0
388248,71,70,83,0
388258,51,88,84,0
388268,40,111,85,0
388278,30,140,88,0
388288,24,140,84,0
388298,22,153,83,0
388308,18,135,72,0
388318,13,140,76,0
388328,15,152,70,0
388338,14,133,77,0
388348,12,174,79,0
388358,14,165,77,0
388368,13,196,75,0
388378,12,198,68,0
388388,10,180,66,0
388398,12,166,72,0
388408,14,150,66,0
388418,12,168,75,0
388428,14,131,81,0
388439,14,111,74,0
388449,16,98,76,0
388459,16,99,87,0
388469,17,119,76,0
388479,13,138,79,0
388489,15,176,80,0
388499,12,149,76,0
388509,11,192,70,0
388519,15,168,63,0
388529,14,139,69,0
388539,13,235,79,0
388549,12,213,76,0
388559,15,205,87,0
388569,13,182,86,0
388579,17,223,87,0
388589,13,246,82,0
388599,14,300,76,0
388609,15,332,72,0
388619,14,296,77,0
388629,18,344,81,0
388639,15,355,73,0
388650,14,273,69,0
388660,17,285,66,0
388670,14,268,76,0
388680,12,197,70,0
388690,15,187,72,0
388700,12,155,68,0
388710,15,179,70,0
388720,12,134,75,0
388730,14,138,70,0
388740,12,167,62,0
388750,11,223,65,0
388760,16,190,63,0
388770,14,149,66,0
388780,17,171,69,0
388790,18,198,79,0
388800,20,282,93,0
388810,42,268,96,0
388820,68,238,98,0
388830,57,222,134,0
388840,70,189,117,0
388850,83,204,114,0
388861,65,181,104,0
388871,47,152,97,0
388881,38,226,92,0
388891,30,249,84,0
388901,22,229,88,0
388911,18,204,85,0
388921,15,184,88,0
388931,16,259,76,0
388941,18,196,71,0
388951,14,184,76,0
388961,17,233,79,0
388971,14,206,81,0
388981,14,176,82,0
388991,10,168,85,0
389001,11,146,80,0
389011,14,142,89,0
389021,12,130,89,0
389031,13,160,79,0
389041,16,154,67,0
389051,14,202,65,0
389061,14,217,69,0
389072,15,211,70,0
389082,16,276,91,0
389092,19,323,84,701
389102,15,271,78,0
389112,11,209,78,0
389122,13,193,79,0
389132,12,178,71,0
389142,13,172,78,0
389152,16,233,81,0
389162,17,200,86,0
389172,16,228,91,0
389182,16,236,83,0
389192,15,267,84,0
389202,13,231,85,0
389212,14,229,82,0
389222,11,251,78,0
389232,15,229,89,0
389242,15,202,86,0
389252,15,209,81,0
389262,15,214,74,0
389272,15,171,78,0
389283,15,192,73,0
389293,14,249,73,0
389303,15,230,72,0
389313,15,183,76,0
389323,16,209,78,0
389333,17,285,78,0
389343,13,312,72,0
389353,15,222,78,0
389363,14,228,79,0
389373,10,222,78,0
389383,13,224,82,0
389393,19,264,85,0
389403,27,232,93,0
389413,28,284,101,0
389423,68,303,93,0
389433,70,211,94,0
389443,66,217,132,0
389453,90,212,104,0
389463,89,237,104,0
389473,63,231,99,0
389484,51,243,89,0
389494,38,231,87,0
389504,27,202,86,0
389514,25,169,88,0
389524,21,205,91,0
389534,15,314,89,0
389544,14,320,80,0
389554,11,411,78,0
389564,9,354,70,0
389574,14,350,76,0
389584,8,301,70,0
389594,12,254,74,0
389604,10,254,68,0
389614,14,245,65,0
389624,10,223,73,0
389634,15,254,67,0
389644,15,272,85,0
389654,13,268,79,0
389664,13,288,69,0
389674,13,247,80,0
389684,15,248,84,0
389695,16,299,94,0
389705,13,278,82,0
389715,14,309,67,0
389725,14,243,75,0
389735,13,228,71,0
389745,13,189,73,0
389755,16,248,80,0
389765,15,239,69,0
389775,16,252,80,0
389785,14,215,78,0
389795,14,221,76,0
389805,12,224,74,0
389815,12,246,75,0
389825,11,243,85,0
389835,13,267,84,0
389845,12,242,96,0
389855,12,275,98,0
389865,13,233,94,0
389875,14,240,93,0
389885,15,207,97,0
389895,15,206,85,0
389906,12,222,85,0
389916,14,216,91,0
389926,18,203,84,0
389936,17,231,67,0
389946,15,219,63,0
389956,18,208,65,0
389966,15,200,73,0
389976,16,266,77,0
389986,17,272,77,0
389996,21,287,90,0
390006,20,309,97,0
390016,32,268,121,0
390026,65,267,111,0
390036,61,309,135,0
390046,70,331,141,0
390056,89,286,116,0
390066,75,234,111,0
390076,54,269,100,0
390086,43,246,95,0
390096,34,258,95,0
390106,24,275,104,0
390117,21,266,91,0
390127,17,205,84,0
390137,15,257,83,0
390147,15,256,73,0
390157,17,234,74,0
390167,14,283,67,0
390177,11,248,72,0
390187,14,199,75,0
390197,16,266,76,0
390207,12,385,76,0
390217,17,328,83,0
390227,18,334,79,0
390237,17,347,84,0
390247,16,275,81,0
390257,12,247,79,0
390267,15,269,77,0
390277,14,314,77,0
390287,12,283,78,0
390297,13,244,73,0
390307,11,241,70,0
390317,13,244,72,0
390328,12,203,71,0
390338,11,175,66,0
390348,10,182,69,0
390358,13,153,70,0
390368,11,244,70,0
390378,14,245,69,0
390388,10,295,62,0
390398,13,314,65,0
390408,14,332,70,0
390418,16,310,79,0
390428,17,296,78,0
390438,12,268,81,0
390448,13,350,73,0
390458,14,274,78,0
390468,14,268,81,0
390478,14,216,81,0
390488,15,243,75,0
390498,14,203,80,0
390508,14,213,90,0
390518,14,184,86,0
390529,13,288,84,0
390539,12,283,80,0
390549,14,330,78,0
390559,17,389,83,0
390569,18,454,79,0
390579,19,365,74,0
390589,20,376,78,0
390599,21,326,106,0
390609,37,457,94,0
390619,61,374,91,0
390629,52,302,114,0
390639,62,340,108,0
390649,77,297,91,0
390659,66,284,92,0
390669,45,221,85,0
390679,38,334,73,0
390689,31,317,68,0
390699,23,333,70,0
390709,19,287,78,0
390719,18,239,81,0
390729,18,225,76,0
390740,17,307,79,0
390750,18,297,78,0
390760,17,312,82,0
390770,15,286,80,0
390780,18,300,75,0
390790,16,280,74,0
390800,13,249,77,0
390810,14,252,81,0
390820,14,229,71,0
390830,14,296,76,0
390840,13,337,74,0
390850,14,361,75,0
390860,14,294,84,0
390870,17,268,78,0
390880,14,241,70,0
390890,12,253,73,0
390900,14,235,73,0
390910,16,270,81,0
390920,12,239,74,0
390930,12,261,70,0
390940,13,310,80,0
390951,13,311,81,0
390961,13,300,85,0
390971,13,273,95,0
390981,15,231,83,0
390991,16,237,86,0
391001,13,249,80,0
391011,13,203,88,0
391021,14,205,82,0
391031,14,258,84,0
391041,12,237,78,0
391051,14,334,76,0
391061,12,356,76,0
391071,18,348,76,0
391081,18,295,84,0
391091,16,228,93,0
391101,18,190,88,0
391111,15,249,82,0
391121,12,223,79,0
391131,15,240,79,0
391141,15,316,76,0
391151,12,302,75,0
391162,14,283,68,0
391172,20,271,74,0
391182,23,277,90,0
391192,30,319,103,0
391202,59,289,110,0
391212,57,291,125,0
391222,59,253,131,0
391232,76,390,121,0
391242,73,341,99,0
391252,50,306,92,0
391262,40,369,74,0
391272,33,296,74,0
391282,29,314,74,0
391292,25,291,78,0
391302,23,270,71,0
391312,18,269,73,0
391322,18,333,70,0
391332,15,390,68,0
391342,15,420,75,0
391352,17,408,67,0
391362,14,432,64,0
391373,18,389,76,0
391383,15,330,77,0
391393,17,381,76,0
391403,17,321,77,0
391413,15,346,82,0
391423,12,338,74,0
391433,13,249,74,0
391443,12,386,81,0
391453,12,387,84,0
391463,13,366,84,0
391473,14,391,84,0
391483,14,392,81,0
391493,13,352,85,0
391503,16,329,82,0
391513,13,265,77,0
391523,16,387,86,0
391533,14,332,77,0
391543,16,328,82,0
391553,17,305,83,0
391563,14,333,82,0
391574,14,282,79,0
391584,12,276,80,0
391594,13,307,80,0
391604,12,313,81,0
391614,11,336,78,0
391624,15,340,72,0
391634,13,337,84,0
391644,12,269,85,0
391654,13,277,82,0
391664,18,290,73,0
391674,18,274,82,0
391684,19,264,84,0
391694,18,328,88,0
391704,18,349,77,0
391714,17,346,76,0
391724,18,310,75,0
391734,15,291,77,0
391744,11,260,75,0
391754,13,209,76,0
391764,19,168,76,0
391774,17,178,76,0
391785,42,238,97,0
391795,65,312,92,0
391805,50,301,132,0
391815,69,303,135,0
391825,76,352,111,0
391835,59,330,98,0
391845,46,330,91,0
391855,36,362,86,0
391865,29,293,80,0
391875,22,306,78,0
391885,21,374,75,0
391895,17,363,78,0
391905,13,340,76,0
391915,14,274,75,0
391925,19,319,91,0
391935,17,391,87,0
391945,14,350,74,0
391955,17,309,76,0
391965,15,352,77,0
391975,15,311,74,0
391985,16,320,71,0
391996,17,309,70,0
392006,14,284,77,0
392016,15,225,72,0
392026,15,261,88,0
392036,18,282,84,0
392046,20,331,70,0
392056,14,338,67,0
392066,15,298,68,0
392076,15,378,74,0
392086,9,325,87,0
392096,9,348,80,702
392106,15,393,82,0
392116,13,388,80,0
392126,18,331,86,0
392136,15,405,74,0
392146,15,408,72,0
392156,14,399,75,0
392166,13,407,75,0
392176,18,338,82,0
392186,18,352,83,0
392196,13,348,75,0
392207,13,388,77,0
392217,13,374,75,0
392227,13,298,70,0
392237,16,323,78,0
392247,16,283,80,0
392257,13,280,95,0
392267,17,319,89,0
392277,15,295,86,0
392287,12,286,76,0
392297,13,319,88,0
392307,16,350,87,0
392317,13,364,85,0
392327,11,327,85,0
392337,14,341,86,0
392347,16,296,79,0
392357,23,392,72,0
392367,22,368,93,0
392377,48,346,114,0
392387,59,356,115,0
392397,50,364,154,0
392407,71,275,148,0
392418,70,219,116,0
392428,48,276,106,0
392438,40,268,99,0
392448,29,356,93,0
392458,25,307,84,0
392468,24,300,91,0
392478,20,374,83,0
392488,19,342,83,0
392498,18,244,71,0
392508,19,253,83,0
392518,19,371,81,0
392528,18,413,77,0
392538,14,321,78,0
392548,17,354,89,0
392558,18,346,83,0
392568,20,391,82,0
392578,17,342,76,0
392588,17,388,67,0
392598,16,320,75,0
392608,14,253,81,0
392619,14,243,76,0
392629,17,282,68,0
392639,16,304,72,0
392649,16,296,69,0
392659,15,338,80,0
392669,15,318,78,0
392679,14,320,74,0
392689,17,298,77,0
392699,14,231,76,0
392709,13,238,79,0
392719,15,236,83,0
392729,12,255,71,0
392739,13,239,72,0
392749,11,252,72,0
392759,12,312,82,0
392769,12,316,72,0
392779,12,333,73,0
392789,13,319,73,0
392799,15,375,87,0
392809,16,342,84,0
392819,15,344,87,0
392830,12,331,83,0
392840,11,404,84,0
392850,17,392,78,0
392860,11,462,87,0
392870,11,361,77,0
392880,11,281,77,0
392890,13,275,74,0
392900,14,253,74,0
392910,16,219,78,0
392920,14,233,78,0
392930,10,237,84,0
392940,16,232,82,0
392950,21,307,83,0
392960,23,301,81,0
392970,42,278,99,0
392980,66,303,87,0
392990,56,275,131,0
393000,69,277,119,0
393010,75,293,101,0
393020,56,285,101,0
393030,41,243,87,0
393041,37,224,78,0
393051,26,253,77,0
393061,26,253,75,0
393071,19,249,78,0
393081,22,258,77,0
393091,15,251,73,0
393101,18,235,76,0
393111,17,222,73,0
393121,15,357,77,0
393131,13,285,77,0
393141,18,285,82,0
393151,15,291,76,0
393161,14,304,70,0
393171,14,388,72,0
393181,17,302,70,0
393191,16,341,79,0
393201,15,308,81,0
393211,15,296,88,0
393221,12,254,88,0
393231,16,240,79,0
393241,17,274,84,0
393252,13,352,83,0
393262,16,371,78,0
393272,12,335,74,0
393282,12,368,72,0
393292,11,313,78,0
393302,11,327,78,0
393312,12,385,72,0
393322,14,335,69,0
393332,15,319,69,0
393342,14,285,70,0
393352,16,260,77,0
393362,14,239,73,0
393372,15,255,79,0
393382,15,256,77,0
393392,15,270,68,0
393402,12,307,63,0
393412,13,285,65,0
393422,13,232,67,0
393432,15,206,71,0
393442,12,202,77,0
393452,16,183,65,0
393463,12,157,69,0
393473,15,200,78,0
393483,14,278,74,0
393493,18,243,67,0
393503,16,315,78,0
393513,12,254,77,0
393523,12,307,82,0
393533,12,292,81,0
393543,13,254,83,0
393553,16,251,74,0
393563,19,238,75,0
393573,22,197,83,0
393583,54,261,95,0
393593,61,301,108,0
393603,56,266,131,0
393613,72,289,117,0
393623,72,261,92,0
393633,50,207,86,0
393643,41,155,83,0
393653,28,143,78,0
393664,22,140,78,0
393674,19,192,82,0
393684,16,222,81,0
393694,16,232,77,0
393704,14,382,79,0
393714,13,310,77,0
393724,14,293,74,0
393734,15,222,66,0
393744,15,211,66,0
393754,15,205,68,0
393764,15,157,64,0
393774,14,177,76,0
393784,13,203,69,0
393794,15,213,72,0
393804,11,257,69,0
393814,13,233,78,0
393824,15,253,89,0
393834,13,226,83,0
393844,12,181,78,0
393854,10,220,75,0
393864,10,208,70,0
393875,15,171,76,0
393885,16,211,79,0
393895,15,206,75,0
393905,12,234,80,0
393915,13,220,73,0
393925,13,237,79,0
393935,14,263,79,0
393945,14,288,70,0
393955,14,242,75,0
393965,17,244,72,0
393975,16,240,66,0
393985,15,295,64,0
393995,12,219,58,0
394005,15,248,64,0
394015,10,266,63,0
394025,14,238,68,0
394035,13,180,68,0
394045,11,235,73,0
394055,15,239,71,0
394065,13,197,80,0
394075,12,176,77,0
394086,14,255,79,0
394096,17,281,70,1001
394106,15,269,73,0
394116,17,258,83,0
394126,13,241,77,0
394136,12,231,77,0
394146,14,233,72,0
394156,11,224,77,0
394166,15,266,76,0
394176,17,306,81,0
394186,24,270,96,0
394196,22,239,99,0
394206,52,309,108,0
394216,74,296,108,0
394226,57,401,140,0
394236,72,406,124,0
394246,84,411,113,0
394256,65,503,105,0
394266,50,418,99,0
394276,37,478,85,0
394286,29,361,82,0
394297,23,276,81,0
394307,21,319,71,0
394317,16,278,70,0
394327,18,200,64,0
394337,18,214,63,0
394347,15,181,60,0
394357,15,174,63,0
394367,13,187,58,0
394377,15,247,65,0
394387,12,205,73,0
394397,15,260,65,0
394407,15,252,77,0
394417,15,230,74,0
394427,12,301,70,0
394437,13,275,71,0
394447,12,233,80,0
394457,14,235,80,0
394467,10,276,71,0
394477,14,262,67,0
394487,13,349,67,0
394497,13,263,73,0
394508,17,256,74,0
394518,13,230,68,0
394528,12,229,63,0
394538,15,192,62,0
394548,12,194,64,0
394558,12,287,74,0
394568,12,244,88,0
394578,12,262,73,0
394588,12,293,77,0
394598,12,265,73,0
394608,14,286,79,0
394618,12,275,73,0
394628,13,223,72,0
394638,13,179,74,0
394648,11,251,69,0
394658,14,240,80,0
394668,15,296,90,0
394678,15,301,79,0
394688,13,283,77,0
394698,15,260,76,0
394708,17,271,73,0
394719,13,284,72,0
394729,14,257,67,0
394739,14,214,70,0
394749,17,213,72,0
394759,18,205,83,0
394769,16,272,75,0
394779,15,210,63,0
394789,13,190,61,0
394799,12,232,72,0
394809,12,212,69,0
394819,19,269,81,0
394829,18,262,86,0
394839,39,294,88,0
394849,65,278,92,0
394859,47,225,133,0
394869,63,162,125,0
394879,79,151,122,0
394889,61,165,112,0
394899,49,255,101,0
394909,39,222,98,0
394920,31,231,95,0
394930,23,247,82,0
394940,20,251,76,0
394950,24,223,82,0
394960,17,181,83,0
394970,15,191,83,0
394980,18,284,83,0
394990,14,269,84,0
395000,15,230,76,0
395010,12,226,74,0
395020,16,257,77,0
395030,12,240,76,0
395040,14,205,73,0
395050,11,200,78,0
395060,13,224,72,0
395070,12,276,69,0
395080,11,262,71,0
395090,11,268,84,0
395100,17,291,77,0
395110,15,249,72,0
395120,14,271,72,0
395131,10,254,73,0
395141,16,221,76,0
395151,16,226,73,0
395161,12,202,76,0
395171,12,185,85,0
395181,12,164,77,0
395191,11,199,82,0
395201,14,184,76,0
395211,13,181,72,0
395221,12,200,70,0
395231,16,183,78,0
395241,13,199,84,0
395251,14,200,75,0
395261,12,200,70,0
395271,11,216,70,0
395281,12,208,73,0
395291,11,254,73,0
395301,15,224,68,0
395311,14,255,67,0
395321,13,225,66,0
395331,12,193,68,0
395342,13,272,69,0
395352,14,263,66,0
395362,17,227,60,0
395372,14,240,73,0
395382,12,244,77,0
395392,14,224,82,0
395402,14,209,77,0
395412,15,174,81,0
395422,15,199,70,0
395432,15,190,67,0
395442,16,176,74,0
395452,19,194,86,0
395462,38,184,89,0
395472,58,242,92,0
395482,49,319,108,0
395492,63,340,112,0
395502,77,283,101,0
395512,63,252,102,0
395522,45,218,84,0
395532,38,227,79,0
395542,31,206,81,0
395553,22,232,72,0
395563,20,195,63,0
395573,20,240,62,0
395583,15,242,68,0
395593,15,225,70,0
395603,14,217,66,0
395613,15,200,69,0
395623,14,205,71,0
395633,16,177,70,1000
395643,14,152,68,600
395653,14,201,71,0
395663,14,187,71,0
395673,13,205,75,0
395683,15,166,67,0
395693,14,136,78,0
395703,13,150,70,0
395713,14,174,72,0
395723,15,190,72,0
395733,16,236,67,0
395743,16,203,74,0
395753,15,195,73,0
395764,17,232,76,0
395774,13,180,72,0
395784,13,193,68,0
395794,12,210,72,0
395804,13,221,79,0
395814,9,235,79,0
395824,12,217,76,0
395834,10,249,69,0
395844,12,217,62,0
395854,13,294,72,0
395864,14,227,73,0
395874,19,230,85,0
395884,11,261,75,0
395894,13,186,75,0
395904,10,188,78,0
395914,11,173,69,0
395924,13,208,75,0
395934,15,191,71,0
395944,14,173,69,0
395954,14,199,75,0
395965,12,179,78,0
395975,13,208,76,0
395985,11,180,69,0
395995,11,220,63,0
396005,14,194,72,0
396015,12,185,81,0
396025,12,216,84,0
396035,14,211,85,0
396045,17,179,75,0
396055,18,182,73,0
396065,24,183,75,0
396075,24,181,83,0
396085,48,171,92,0
396095,70,205,95,0
396105,56,194,130,0
396115,72,200,107,0
396125,79,206,99,0
396135,62,174,100,0
396145,45,133,88,0
396155,37,114,88,0
396165,25,108,80,0
396176,24,121,75,0
396186,21,180,72,0
396196,17,255,73,0
396206,14,243,83,0
396216,16,252,81,0
396226,15,269,74,0
396236,16,234,78,0
396246,13,221,77,0
396256,15,198,77,0
396266,14,162,69,0
396276,16,160,69,0
396286,16,189,77,0
396296,15,264,82,0
396306,16,276,81,0
396316,17,341,75,0
396326,14,269,77,0
396336,16,301,72,0
396346,15,291,70,0
396356,18,270,75,0
396366,18,262,78,0
396376,15,223,72,0
396387,14,288,73,0
396397,15,276,78,0
396407,17,280,80,0
396417,17,328,82,0
396427,13,328,73,0
396437,15,310,77,0
396447,13,267,78,0
396457,15,221,91,0
396467,12,241,91,0
396477,12,210,84,0
396487,13,260,82,0
396497,12,227,75,0
396507,13,252,90,0
396517,11,291,77,0
396527,13,306,68,0
396537,15,267,68,0
396547,13,216,59,0
396557,10,307,78,0
396567,13,253,75,0
396577,15,229,71,0
396587,14,203,85,0
396598,10,208,77,0
396608,15,273,84,0
396618,13,392,79,0
396628,15,360,69,0
396638,13,382,69,0
396648,12,327,70,0
396658,12,304,71,0
396668,15,251,72,0
396678,22,222,72,0
396688,21,356,83,0
396698,26,335,89,0
396708,59,307,88,0
396718,63,344,113,0
396728,57,334,141,0
396738,81,335,114,0
396748,79,274,115,0
396758,53,234,95,0
396768,39,271,90,0
396778,29,242,77,0
396788,24,245,74,0
396798,20,268,80,0
396809,21,282,86,0
396819,16,246,78,0
396829,19,233,90,0
396839,18,210,83,0
396849,17,235,88,0
396859,15,237,92,0
396869,15,247,83,0
396879,13,210,78,0
396889,16,286,83,0
396899,16,258,85,0
396909,14,253,74,0
396919,12,272,74,0
396929,13,269,77,0
396939,11,341,79,0
396949,15,362,77,0
396959,16,297,80,0
396969,12,298,83,0
396979,13,296,76,0
396989,16,298,86,0
396999,14,255,80,0
397010,13,265,69,0
397020,14,290,72,0
397030,15,337,72,0
397040,18,353,71,0
397050,16,360,69,0
397060,17,348,65,0
397070,17,343,82,0
397080,14,345,75,0
397090,16,334,89,0
397100,14,330,79,0
397110,14,343,74,0
397120,10,342,83,0
397130,13,341,84,0
397140,14,349,89,601
397150,13,363,81,0
397160,15,285,77,0
397170,15,252,78,0
397180,18,248,86,0
397190,19,228,95,0
397200,18,303,93,0
397210,14,314,86,0
397221,15,239,77,0
397231,17,266,73,0
397241,15,247,85,0
397251,15,329,94,0
397261,11,280,77,0
397271,14,310,92,0
397281,15,243,88,0
397291,15,226,85,0
397301,20,257,84,0
397311,24,225,87,0
397321,55,199,96,0
397331,67,257,99,0
397341,59,228,131,0
397351,80,284,119,0
397361,83,255,102,0
397371,59,377,98,0
397381,42,287,99,0
397391,37,225,95,0
397401,30,324,85,0
397411,23,285,80,0
397421,20,221,87,0
397432,16,269,81,0
397442,12,319,89,0
397452,16,250,85,0
397462,13,240,80,0
397472,13,230,73,0
397482,12,349,72,0
397492,12,324,81,0
397502,13,296,83,0
397512,13,253,85,0
397522,11,270,81,0
397532,16,258,85,0
397542,10,224,83,0
397552,14,261,81,0
397562,14,295,86,0
397572,16,253,88,0
397582,14,283,74,0
397592,15,290,85,0
397602,13,246,88,0
397612,13,324,89,0
397622,14,253,88,0
397632,13,245,80,0
397643,17,319,74,0
397653,14,268,72,0
397663,14,258,81,0
397673,16,310,89,0
397683,14,270,74,0
397693,11,283,87,0
397703,13,330,81,0
397713,14,286,84,0
397723,13,353,83,0
397733,12,360,84,0
397743,17,351,90,0
397753,16,282,82,0
397763,11,250,83,0
397773,14,220,80,0
397783,13,195,83,0
397793,12,221,86,0
397803,18,211,84,0
397813,16,180,77,0
397823,19,182,79,0
397833,16,266,76,0
397843,13,370,90,0
397854,15,367,88,0
397864,15,382,89,0
397874,17,344,87,0
397884,17,316,73,0
397894,18,317,74,0
397904,21,260,75,0
397914,26,320,91,0
397924,54,294,84,0
397934,57,391,93,0
397944,58,298,118,0
397954,79,280,120,0
397964,71,350,102,0
397974,50,267,102,0
397984,43,260,101,0
397994,34,282,99,0
398004,22,220,115,0
398014,20,253,100,0
398024,19,256,89,0
398034,15,210,82,0
398044,14,278,67,0
398055,15,215,81,0
398065,12,179,84,0
398075,13,207,81,0
398085,15,219,93,0
398095,14,281,100,0
398105,12,328,94,0
398115,16,277,88,0
398125,13,261,87,0
398135,13,311,81,0
398145,13,251,75,0
398155,11,254,90,0
398165,14,268,84,0
398175,9,273,79,0
398185,11,280,83,0
398195,14,316,87,0
398205,18,309,81,0
398215,16,295,74,0
398225,15,265,82,0
398235,14,230,86,0
398245,15,225,76,0
398255,13,223,88,0
398266,15,270,84,0
398276,16,288,87,0
398286,13,360,87,0
398296,11,301,85,0
398306,15,284,103,0
398316,10,257,104,0
398326,13,245,112,0
398336,13,392,108,0
398346,12,339,101,0
398356,16,303,97,0
398366,12,353,98,0
398376,10,291,98,0
398386,9,261,96,0
398396,14,209,100,0
398406,14,237,94,0
398416,16,243,89,0
398426,15,215,82,0
398436,15,298,82,0
398446,13,258,88,0
398456,11,237,90,0
398466,9,235,85,0
398477,11,215,84,0
398487,15,224,103,0
398497,17,252,114,0
398507,28,325,111,0
398517,61,285,122,0
398527,60,342,147,0
398537,59,279,164,0
398547,82,262,134,0
398557,76,229,116,0
398567,55,293,116,0
398577,44,247,94,0
398587,37,220,89,0
398597,28,266,90,0
398607,22,215,85,0
398617,20,221,90,0
398627,19,270,90,0
398637,18,250,84,0
398647,18,348,85,0
398657,18,320,97,0
398667,17,332,84,0
398677,13,325,93,0
398688,17,258,101,0
398698,12,265,89,0
398708,13,281,73,0
398718,13,244,78,0
398728,16,187,76,0
398738,12,307,79,0
398748,15,264,83,0
398758,13,250,89,0
398768,14,237,80,0
398778,13,266,69,0
398788,14,237,92,0
398798,14,250,83,0
398808,16,224,82,0
398818,16,192,85,0
398828,13,192,80,0
398838,12,224,82,0
398848,14,218,83,0
398858,10,238,88,0
398868,9,273,92,0
398878,10,269,85,0
398888,14,239,86,0
398899,17,233,89,0
398909,14,181,94,0
398919,12,218,92,0
398929,16,199,82,0
398939,17,199,109,0
398949,17,192,104,0
398959,17,239,103,0
398969,16,254,94,0
398979,16,243,90,0
398989,13,340,88,0
398999,14,341,83,0
399009,15,308,89,0
399019,11,274,99,0
399029,12,230,97,0
399039,11,274,100,0
399049,14,287,92,0
399059,12,333,91,0
399069,16,337,84,0
399079,24,404,82,0
399089,23,457,89,0
399100,38,351,89,0
399110,68,338,108,0
399120,60,334,144,0
399130,73,356,123,0
399140,86,320,108,0
399150,64,276,114,0
399160,48,316,100,0
399170,41,298,96,0
399180,31,362,93,0
399190,25,282,105,0
399200,20,306,95,0
399210,16,273,82,0
399220,13,295,70,0
399230,16,297,68,0
399240,18,236,71,0
399250,16,231,86,0
399260,14,276,72,0
399270,15,293,81,0
399280,13,313,76,0
399290,14,343,82,0
399300,13,392,89,0
399311,12,303,90,0
399321,12,308,95,0
399331,14,382,89,0
399341,16,343,82,0
399351,11,277,76,0
399361,13,293,81,0
399371,15,301,98,0
399381,14,235,88,0
399391,13,204,95,0
399401,17,266,80,0
399411,11,365,66,0
399421,11,354,88,0
399431,11,403,89,0
399441,14,338,92,0
399451,14,307,98,0
399461,11,281,89,0
399471,12,260,99,0
399481,12,296,95,0
399491,11,263,91,0
399501,15,337,105,0
399511,15,352,102,0
399522,9,320,87,0
399532,11,283,88,0
399542,14,369,78,0
399552,9,281,69,0
399562,12,271,85,0
399572,12,259,99,0
399582,15,227,88,0
399592,11,284,84,0
399602,17,251,95,0
399612,16,299,93,0
399622,16,306,91,0
399632,13,263,89,0
399642,11,290,83,0
399652,12,242,78,0
399662,18,239,78,0
399672,20,200,83,0
399682,31,248,93,0
399692,57,281,86,0
399702,55,336,126,0
399712,70,331,135,0
399722,89,320,121,0
399733,68,307,107,0
399743,55,277,105,0
399753,47,242,107,0
399763,37,268,95,0
399773,28,297,97,0
399783,24,241,85,0
399793,24,259,95,0
399803,15,288,95,0
399813,15,254,86,0
399823,15,260,79,0
399833,16,299,84,0
399843,12,307,78,0
399853,14,271,69,0
399863,13,249,67,0
399873,14,217,78,0
399883,14,220,78,0
399893,17,273,74,0
399903,15,286,97,0
399913,15,326,89,0
399923,18,350,90,0
399933,17,261,86,0
399944,14,269,81,0
399954,18,312,77,0
399964,19,333,83,0
399974,17,299,83,0
399984,15,294,86,0
399994,15,267,88,0
400004,16,270,86,0
400014,13,287,92,0
400024,16,281,86,0
400034,12,393,85,0
400044,11,347,74,0
400054,12,322,85,0
400064,16,278,85,0
400074,16,286,72,0
400084,18,246,88,0
400094,16,193,79,0
400104,15,203,77,0
400114,15,239,88,0
400124,14,330,87,0
400134,19,374,78,0
400145,16,314,89,602
400155,15,416,92,0
400165,16,344,84,0
400175,18,290,79,0
400185,14,308,87,0
400195,12,312,83,0
400205,14,341,84,0
400215,14,303,77,0
400225,16,331,76,0
400235,15,326,72,0
400245,14,271,83,0
400255,19,242,97,0
400265,22,246,114,0
400275,56,267,115,0
400285,66,288,105,0
400295,58,254,136,0
400305,86,206,124,0
400315,82,206,107,0
400325,61,158,101,0
400335,46,191,100,0
400345,32,246,85,0
400356,26,208,89,0
400366,20,244,93,0
400376,17,322,90,0
400386,17,319,83,0
400396,17,313,83,0
400406,17,299,88,0
400416,11,306,97,0
400426,11,338,93,0
400436,9,367,84,0
400446,11,289,86,0
400456,15,337,81,0
400466,14,284,76,0
400476,14,268,81,0
400486,16,285,79,0
400496,13,244,83,0
400506,13,319,89,0
400516,17,306,86,0
400526,15,301,82,0
400536,19,297,75,0
400546,14,341,77,0
400556,12,294,93,0
400567,15,314,104,0
400577,15,288,93,0
400587,14,263,102,0
400597,13,210,92,0
400607,13,334,78,0
400617,16,286,83,0
400627,13,301,74,0
400637,16,283,72,0
400647,16,291,83,0
400657,14,303,82,0
400667,17,330,101,0
400677,23,319,92,0
400687,36,380,98,0
400697,43,327,79,0
400707,42,276,80,0
400717,31,343,77,0
400727,31,283,73,0
400737,29,344,69,0
400747,27,338,73,0
400757,31,300,75,0
400767,30,330,68,0
400778,27,287,64,0
400788,22,237,84,0
400798,17,304,77,0
400808,20,274,73,0
400818,19,234,80,0
400828,16,262,84,0
400838,24,269,93,0
400848,21,262,112,0
400858,50,305,99,0
400868,77,392,99,0
400878,62,365,113,0
400888,84,322,103,0
400898,91,388,103,0
400908,63,373,101,0
400918,47,273,107,0
400928,35,283,87,0
400938,28,270,85,0
400948,20,282,86,0
400958,17,330,88,0
400968,14,283,77,0
400978,15,379,72,0
400989,15,324,77,0
400999,17,242,72,0
401009,12,206,70,0
401019,15,200,76,0
401029,13,172,91,0
401039,12,194,97,0
401049,13,178,94,0
401059,10,133,101,0
401069,11,197,100,0
401079,12,236,88,0
401089,15,298,89,0
401099,14,316,87,0
401109,12,239,78,0
401119,17,204,74,0
401129,13,143,68,0
401139,14,183,72,0
401149,15,232,75,0
401159,11,284,72,0
401169,10,296,78,0
401179,13,357,76,0
401190,15,312,73,0
401200,14,307,76,0
401210,14,234,76,0
401220,14,260,77,0
401230,11,240,79,0
401240,12,251,77,0
401250,15,246,83,0
401260,16,297,67,0
401270,13,360,73,0
401280,17,285,73,0
401290,19,316,74,0
401300,13,310,80,0
401310,10,281,70,0
401320,12,247,80,0
401330,12,289,80,0
401340,19,253,80,0
401350,16,239,73,0
401360,17,236,77,0
401370,14,238,82,0
401380,18,296,83,0
401390,17,223,79,0
401401,13,183,76,0
401411,13,151,75,0
401421,22,247,71,0
401431,20,267,75,0
401441,37,287,89,0
401451,63,257,85,0
401461,54,391,113,0
401471,69,338,118,0
401481,82,374,103,0
401491,63,334,86,0
401501,49,259,84,0
401511,43,191,78,0
401521,33,163,75,0
401531,27,158,69,0
401541,22,172,66,0
401551,20,144,65,0
401561,18,143,77,0
401571,16,136,80,0
401581,15,132,71,0
401591,17,129,76,0
401601,19,146,79,0
401612,17,166,79,0
401622,15,187,86,0
401632,14,167,77,0
401642,16,155,82,0
401652,15,184,79,0
401662,12,153,85,0
401672,11,144,79,0
401682,12,198,76,0
401692,16,219,80,0
401702,14,326,87,0
401712,13,323,77,0
401722,11,267,89,0
401732,13,344,77,0
401742,12,257,72,0
401752,15,248,82,0
401762,14,246,86,0
401772,16,233,89,0
401782,14,204,79,0
401792,14,245,73,0
401802,13,231,81,0
401812,11,195,80,0
401823,14,148,73,0
401833,13,193,69,0
401843,14,189,68,0
401853,12,254,73,0
401863,15,202,75,0
401873,12,167,81,0
401883,13,154,85,0
401893,12,195,78,0
401903,16,173,93,0
401913,14,174,81,0
401923,18,162,75,0
401933,20,135,79,0
401943,16,175,73,0
401953,16,166,76,0
401963,13,190,69,0
401973,12,256,79,0
401983,13,233,71,0
401993,17,257,69,0
402003,20,212,68,0
402013,23,229,92,0
402023,54,215,106,0
402034,66,271,113,0
402044,55,253,134,0
402054,78,296,112,0
402064,81,261,101,0
402074,58,206,89,0
402084,49,172,86,0
402094,36,231,91,0
402104,26,219,84,0
402114,23,265,82,0
402124,19,229,86,0
402134,18,174,79,0
402144,16,167,74,1001
402154,14,142,76,0
402164,12,200,75,0
402174,12,173,76,0
402184,14,194,75,0
402194,13,171,71,0
402204,12,217,73,0
402214,13,219,81,0
402224,13,205,85,0
402234,16,209,82,0
402245,14,292,77,0
402255,11,280,83,0
402265,14,239,76,0
402275,13,255,71,0
402285,11,246,78,0
402295,15,186,78,0
402305,14,259,75,0
402315,12,273,77,0
402325,14,289,73,0
402335,13,294,69,0
402345,12,222,68,0
402355,12,213,70,0
402365,11,214,73,0
402375,14,238,68,0
402385,16,174,77,0
402395,10,165,74,0
402405,14,171,76,0
402415,13,161,82,0
402425,12,154,77,0
402435,12,147,80,0
402446,12,146,87,0
402456,10,124,91,0
402466,10,148,90,0
402476,12,128,83,0
402486,14,121,90,0
402496,15,165,77,0
402506,15,171,79,0
402516,19,139,68,0
402526,18,177,67,0
402536,18,174,72,0
402546,16,164,72,0
402556,14,138,73,0
402566,13,140,65,0
402576,11,175,65,0
402586,18,141,65,0
402596,22,151,70,0
402606,42,143,81,0
402616,69,142,83,0
402626,59,187,119,0
402636,74,161,120,0
402646,92,187,110,0
402657,73,163,100,0
402667,53,161,97,0
402677,43,141,84,0
402687,35,173,77,0
402697,27,245,84,0
402707,21,221,82,0
402717,18,256,72,0
402727,14,192,75,0
402737,15,215,71,0
402747,14,265,74,0
402757,16,284,70,0
402767,12,238,75,0
402777,12,275,75,0
402787,14,272,85,0
402797,13,230,77,0
402807,11,205,72,0
402817,13,182,77,0
402827,16,204,75,0
402837,13,205,71,0
402847,15,235,69,0
402857,15,237,76,0
402868,14,230,83,0
402878,14,206,81,0
402888,15,168,76,0
402898,13,144,72,0
402908,16,144,69,0
402918,12,151,64,0
402928,12,145,68,0
402938,15,128,76,0
402948,14,140,71,0
402958,11,167,67,0
402968,13,229,79,0
402978,14,197,80,0
402988,13,193,86,0
402998,15,191,92,0
403008,14,178,87,0
403018,13,156,82,0
403028,12,201,80,0
403038,14,209,82,0
403048,12,262,76,0
403058,12,261,74,0
403068,14,299,78,0
403079,14,238,68,0
403089,16,196,65,0
403099,15,165,71,0
403109,11,145,76,0
403119,15,127,78,0
403129,13,155,67,0
403139,15,174,65,0
403149,11,145,66,0
403159,12,162,60,0
403169,10,227,69,0
403179,16,187,72,0
403189,17,146,86,0
403199,19,143,91,0
403209,48,211,84,0
403219,64,270,110,0
403229,56,223,135,0
403239,80,269,130,0
403249,84,226,122,0
403259,61,192,104,0
403269,43,181,96,0
403280,35,186,85,0
403290,31,198,84,0
403300,20,177,82,0
403310,22,166,75,0
403320,15,184,67,0
403330,17,190,75,0
403340,17,172,77,0
403350,15,188,89,0
403360,16,274,81,0
403370,13,236,77,0
403380,15,253,78,800
403390,14,198,84,0
403400,13,187,80,0
403410,17,162,78,0
403420,16,187,79,0
403430,14,162,72,0
403440,14,178,74,0
403450,14,155,75,0
403460,12,125,79,0
403470,14,166,78,0
403480,12,184,75,0
403491,12,192,74,0
403501,9,238,83,0
403511,14,200,72,0
403521,11,220,66,0
403531,11,203,66,0
403541,12,227,69,0
403551,11,222,72,0
403561,12,180,74,0
403571,16,174,80,0
403581,17,156,74,0
403591,14,128,70,0
403601,11,123,72,0
403611,11,129,72,0
403621,10,183,72,0
403631,14,222,67,0
403641,12,232,59,0
403651,13,220,71,0
403661,13,193,76,0
403671,14,179,78,0
403681,14,151,77,0
403691,16,133,70,0
403702,16,127,78,0
403712,18,161,74,0
403722,15,169,75,0
403732,14,148,72,0
403742,14,137,70,0
403752,15,120,72,0
403762,16,106,71,0
403772,16,112,75,0
403782,15,131,68,0
403792,16,170,65,0
403802,24,165,66,0
403812,23,177,95,0
403822,44,182,93,0
403832,70,177,97,0
403842,55,191,130,0
403852,72,172,106,0
403862,86,212,94,0
403872,64,188,95,0
403882,49,172,86,0
403892,37,152,69,0
403902,26,147,86,0
403913,23,147,88,0
403923,16,209,87,0
403933,16,181,85,0
403943,14,158,82,0
403953,15,206,78,0
403963,13,203,75,0
403973,17,167,72,0
403983,12,167,65,0
403993,13,187,65,0
404003,11,272,67,0
404013,13,271,74,0
404023,13,308,73,0
404033,12,255,75,0
404043,10,196,72,0
404053,16,151,69,0
404063,17,164,78,0
404073,12,270,78,0
404083,12,268,73,0
404093,17,341,71,0
404103,15,257,85,0
404113,14,246,80,0
404124,14,208,81,0
404134,12,233,73,0
404144,13,203,70,0
404154,15,280,74,0
404164,15,259,73,0
404174,10,270,78,0
404184,9,218,82,0
404194,13,184,76,0
404204,10,199,71,0
404214,14,218,71,0
404224,14,235,68,0
404234,12,253,68,0
404244,13,224,79,0
404254,17,228,85,0
404264,12,202,77,0
404274,15,163,72,0
404284,14,253,70,0
404294,15,225,72,0
404304,12,269,68,0
404314,13,286,68,0
404325,14,254,65,0
404335,12,255,65,0
404345,13,236,66,0
404355,14,236,73,0
404365,16,194,70,0
404375,14,247,73,0
404385,15,222,90,0
404395,15,192,94,0
404405,10,236,91,0
404415,12,220,92,0
404425,21,247,84,0
404435,23,229,90,0
404445,30,212,99,0
404455,66,234,85,0
404465,62,241,116,0
404475,65,189,150,0
404485,89,166,116,0
404495,79,210,114,0
404505,58,182,103,0
404515,46,185,102,0
404525,37,144,88,0
404536,26,128,84,0
404546,25,122,89,0
404556,19,119,78,0
404566,21,147,74,0
404576,15,150,86,0
404586,16,210,76,0
404596,19,264,80,0
404606,15,249,76,0
404616,16,209,79,0
404626,16,157,69,0
404636,13,212,85,0
404646,13,232,77,0
404656,11,253,69,0
404666,13,253,75,0
404676,12,253,70,0
404686,14,219,75,0
404696,10,204,81,0
404706,14,194,85,0
404716,14,212,82,0
404726,16,232,80,0
404736,15,241,82,0
404747,14,259,82,0
404757,14,290,84,0
404767,12,281,88,0
404777,13,264,76,0
404787,17,223,79,0
404797,15,243,77,0
404807,16,188,75,0
404817,14,176,78,0
404827,17,132,72,0
404837,14,154,73,0
404847,14,125,73,0
404857,14,169,76,0
404867,16,143,79,0
404877,12,180,79,0
404887,15,158,77,801
404897,15,183,68,0
404907,16,221,71,0
404917,13,238,73,0
404927,17,225,74,0
404937,15,187,68,0
404947,12,182,73,0
404958,13,168,72,0
404968,14,229,71,0
404978,15,235,71,0
404988,18,224,80,0
404998,14,177,87,0
405008,13,196,76,0
405018,16,170,80,0
405028,13,239,76,0
405038,12,239,82,0
405048,13,249,86,0
405058,18,216,89,0
405068,22,231,96,0
405078,55,178,97,0
405088,53,194,113,0
405098,55,210,125,0
405108,79,233,111,0
405118,75,233,98,0
405128,55,275,97,0
405138,44,251,97,0
405148,36,266,86,0
405158,28,230,82,0
405169,19,184,80,0
405179,16,218,79,0
405189,19,276,67,0
405199,15,270,76,0
405209,15,260,61,0
405219,13,241,67,0
405229,13,225,77,0
405239,13,256,68,0
405249,12,218,75,0
405259,13,263,70,0
405269,11,233,80,0
405279,13,285,90,0
405289,10,225,83,0
405299,12,325,71,0
405309,11,359,71,0
405319,12,327,75,0
405329,14,298,78,0
405339,15,272,72,0
405349,14,217,73,0
405359,12,183,79,0
405369,14,215,92,0
405380,13,231,85,0
405390,17,235,78,0
405400,12,196,73,0
405410,14,170,66,0
405420,15,176,69,0
405430,15,211,66,0
405440,10,226,76,0
405450,15,226,78,0
405460,11,270,74,0
405470,12,284,79,0
405480,12,260,76,0
405490,14,215,75,0
405500,18,239,73,0
405510,15,251,70,0
405520,13,234,75,0
405530,11,241,69,0
405540,12,214,77,0
405550,12,243,76,0
405560,11,241,78,0
405570,16,285,79,0
405581,16,414,84,0
405591,14,328,88,0
405601,12,275,90,0
405611,13,241,81,0
405621,16,274,72,0
405631,18,305,71,0
405641,15,262,70,0
405651,14,243,74,0
405661,16,257,87,0
405671,15,224,81,0
405681,21,262,88,0
405691,20,291,91,0
405701,54,279,85,0
405711,68,275,107,0
405721,58,312,133,0
405731,82,254,115,0
405741,77,187,102,0
405751,56,225,96,0
405761,45,214,92,0
405771,35,209,93,0
405781,28,202,84,0
405792,24,240,77,0
405802,22,235,82,0
405812,17,421,84,0
405822,14,371,70,0
405832,17,390,68,0
405842,14,327,69,0
405852,13,298,79,0
405862,14,302,90,0
405872,14,385,99,0
405882,11,374,96,0
405892,15,322,90,0
405902,15,353,84,0
405912,15,297,84,0
405922,15,273,81,0
405932,13,233,75,0
405942,13,220,79,0
405952,16,254,92,0
405962,16,247,83,0
405972,17,303,92,0
405982,13,250,83,0
405992,15,297,77,0
406003,12,265,89,0
406013,15,275,93,0
406023,11,251,95,0
406033,10,304,97,0
406043,11,259,94,0
406053,13,273,93,0
406063,17,243,85,0
406073,15,225,79,0
406083,17,208,68,0
406093,16,249,66,0
406103,12,242,71,0
406113,13,207,65,0
406123,12,219,64,0
406133,13,213,71,0
406143,9,187,66,0
406153,11,213,64,0
406163,11,257,62,0
406173,11,178,64,0
406183,13,222,73,0
406193,14,336,70,0
406203,12,310,83,0
406214,13,330,77,0
406224,11,295,89,0
406234,15,294,89,0
406244,14,220,82,0
406254,15,238,88,0
406264,11,241,89,0
406274,13,248,89,0
406284,15,254,86,0
406294,18,322,102,0
406304,24,286,101,0
406314,27,280,105,0
406324,62,312,90,0
406334,68,271,121,0
406344,62,235,115,0
406354,85,246,108,0
406364,77,242,111,0
406374,53,224,99,0
406384,42,320,97,0
406394,32,280,111,0
406404,26,342,94,0
406414,21,352,84,0
406425,17,386,84,0
406435,16,382,83,0
406445,14,402,83,0
406455,15,392,75,0
406465,13,369,72,0
406475,12,323,70,0
406485,10,248,61,0
406495,14,236,67,0
406505,16,199,81,0
406515,13,230,92,0
406525,13,287,86,0
406535,12,286,82,0
406545,14,344,77,0
406555,16,266,83,0
406565,12,250,94,0
406575,16,250,105,0
406585,16,216,111,0
406595,16,221,97,0
406605,14,284,90,0
406615,13,273,73,0
406626,13,257,77,0
406636,14,225,80,0
406646,14,302,76,0
406656,13,263,82,0
406666,11,307,91,0
406676,11,299,82,0
406686,14,295,88,0
406696,12,259,84,0
406706,16,232,78,0
406716,13,316,73,0
406726,11,327,72,0
406736,15,333,77,0
406746,10,289,77,0
406756,12,288,88,0
406766,10,240,84,0
406776,15,211,94,0
406786,17,228,93,0
406796,16,238,89,0
406806,14,310,88,0
406816,15,354,84,0
406826,16,282,87,0
406837,15,271,87,0
406847,16,322,94,0
406857,12,312,98,0
406867,12,379,96,0
406877,11,365,89,0
406887,9,388,87,0
406897,13,322,83,0
406907,15,315,79,0
406917,22,322,94,0
406927,22,263,116,0
406937,58,412,112,0
406947,73,395,122,0
406957,60,370,165,0
406967,83,315,120,0
406977,81,265,111,0
406987,60,295,110,0
406997,42,330,101,0
407007,33,314,91,0
407017,30,346,97,0
407027,22,399,89,0
407037,19,316,85,0
407048,18,327,84,0
407058,15,318,87,0
407068,14,360,69,0
407078,14,319,72,0
407088,15,269,74,0
407098,13,247,85,0
407108,15,238,81,0
407118,14,322,85,0
407128,16,355,84,0
407138,12,277,84,0
407148,14,390,75,0
407158,13,315,90,0
407168,14,295,73,0
407178,15,298,72,0
407188,13,347,76,0
407198,13,300,79,0
407208,16,302,72,0
407218,14,279,82,0
407228,14,239,75,0
407238,14,218,89,0
407248,16,267,82,0
407259,15,371,83,0
407269,11,323,83,0
407279,16,337,79,0
407289,15,364,70,0
407299,13,340,73,0
407309,15,284,81,0
407319,15,335,86,0
407329,17,342,77,0
407339,14,366,79,0
407349,14,316,70,0
407359,17,265,72,0
407369,14,226,85,0
407379,17,218,74,0
407389,17,211,79,0
407399,16,218,73,0
407409,18,190,71,0
407419,16,320,79,0
407429,15,260,79,0
407439,16,224,80,0
407449,12,253,76,0
407459,13,316,72,0
407470,14,383,92,0
407480,17,362,96,0
407490,17,344,88,0
407500,13,376,87,0
407510,12,300,85,0
407520,20,257,84,0
407530,23,239,104,0
407540,51,309,98,0
407550,62,283,125,0
407560,54,344,167,0
407570,79,287,152,0
407580,75,384,120,0
407590,55,358,99,0
407600,43,306,103,0
407610,35,256,94,0
407620,26,313,91,0
407630,20,268,85,0
407640,18,299,78,0
407650,15,256,82,0
407660,14,227,92,0
407671,12,240,89,0
407681,11,255,87,0
407691,12,229,97,0
407701,12,189,91,0
407711,11,168,88,0
407721,14,252,70,0
407731,16,243,78,0
407741,16,209,76,0
407751,17,198,83,0
407761,16,151,79,0
407771,17,170,78,0
407781,12,155,80,0
407791,10,175,73,0
407801,17,334,89,0
407811,13,303,89,0
407821,17,247,85,0
407831,13,248,90,0
407841,14,222,89,0
407851,14,229,82,0
407861,16,278,72,0
407871,18,321,72,0
407882,15,290,63,802
407892,15,223,61,0
407902,15,244,80,0
407912,16,278,72,0
407922,14,330,70,0
407932,14,316,66,0
407942,14,294,65,0
407952,11,344,87,0
407962,10,327,81,0
407972,15,294,85,0
407982,14,302,84,0
407992,14,339,85,0
408002,14,346,92,0
408012,16,344,75,0
408022,13,257,96,0
408032,15,295,88,0
408042,15,312,74,0
408052,16,294,78,0
408062,17,296,67,0
408072,15,263,75,0
408082,21,219,84,0
408093,23,218,88,0
408103,20,201,79,0
408113,18,211,89,0
408123,40,231,95,0
408133,61,264,99,0
408143,51,246,130,0
