170372,13,85,46,1000
170393,11,74,36,0
170403,10,62,38,0
170413,9,65,39,0
170423,5,65,41,0
170433,9,67,42,0
170443,8,68,42,0
170453,7,64,43,0
170463,14,69,42,0
170473,10,67,38,0
170483,9,65,44,0
170493,37,64,53,0
170503,62,68,65,0
170513,64,51,86,0
170523,85,50,83,0
170533,75,56,117,0
170543,57,70,120,0
170553,39,62,97,0
170563,26,63,83,0
170573,24,70,65,0
170583,19,66,58,0
170594,17,69,52,0
170604,18,71,46,0
170614,11,80,39,0
170624,9,67,34,0
170634,7,58,33,0
170644,12,67,37,0
170654,4,80,38,0
170664,5,96,37,0
170674,9,92,37,0
170684,7,89,45,0
170694,10,121,42,0
170704,5,110,45,0
170714,12,85,37,0
170724,14,91,37,0
170734,8,117,33,0
170744,16,118,41,0
170754,11,118,42,0
170764,15,80,40,0
170774,7,90,36,0
170784,14,97,37,0
170794,4,95,41,0
170805,8,79,39,0
170815,11,76,35,0
170825,12,66,36,0
170835,15,68,39,0
170845,15,61,40,0
170855,5,62,39,0
170865,10,65,31,0
170875,6,69,40,0
170885,10,65,33,0
170895,7,65,34,0
170905,5,69,39,0
170915,10,86,35,0
170925,11,75,34,0
170935,9,75,33,0
170945,3,70,34,0
170955,7,83,38,0
170965,10,97,35,0
170975,13,78,32,0
170985,12,99,32,0
170995,6,92,35,0
171005,14,75,38,0
171016,13,77,37,0
171026,5,69,35,0
171036,5,70,45,0
171046,15,68,54,0
171056,13,64,62,0
171066,9,56,75,0
171076,11,53,69,0
171086,5,40,65,0
171096,5,39,62,0
171106,5,36,53,0
171116,10,42,45,0
171126,14,36,42,0
171136,6,38,45,0
171146,14,53,50,0
171156,12,73,43,0
171166,7,74,38,0
171176,13,112,40,0
171186,7,92,42,0
171196,37,80,38,0
171206,69,72,39,0
171216,56,71,68,0
171227,87,63,66,0
171237,77,62,109,0
171247,62,51,112,0
171257,39,83,86,0
171267,32,77,65,0
171277,16,92,54,0
171287,18,96,49,0
171297,18,82,39,0
171307,14,64,41,0
171317,17,59,38,0
171327,12,60,43,0
171337,16,89,38,0
171347,9,85,32,0
171357,9,76,37,0
171367,16,70,36,0
171377,9,66,38,0
171387,6,62,42,0
171397,14,64,47,0
171407,8,83,38,0
171417,12,78,37,0
171427,18,98,42,0
171438,10,94,36,0
171448,15,74,44,0
171458,17,62,44,0
171468,16,52,37,0
171478,15,56,39,0
171488,8,65,44,0
171498,8,58,43,0
171508,12,79,45,0
171518,18,115,48,0
171528,15,111,44,0
171538,7,94,38,0
171548,10,78,37,0
171558,16,63,44,0
171568,15,75,47,0
171578,6,88,47,0
171588,10,92,49,0
171598,11,89,45,0
171608,13,87,40,0
171618,15,78,31,0
171628,16,63,32,0
171638,14,53,35,0
171649,10,70,38,0
171659,17,74,36,0
171669,12,81,41,0
171679,8,93,43,0
171689,10,131,41,0
171699,9,116,41,0
171709,12,95,44,0
171719,5,84,47,0
171729,9,78,60,0
171739,8,72,56,0
171749,12,86,59,0
171759,5,98,51,0
171769,14,87,48,0
171779,11,72,41,0
171789,7,78,47,0
171799,9,65,44,0
171809,8,72,38,0
171819,11,68,40,0
171829,12,60,48,0
171839,6,61,46,0
171849,9,66,44,0
171860,4,74,40,0
171870,6,58,36,0
171880,20,69,40,701
171890,61,75,44,0
171900,65,80,79,0
171910,86,75,96,0
171920,87,73,102,0
171930,75,64,145,0
171940,46,55,123,0
171950,34,56,84,0
171960,31,62,74,0
171970,21,62,69,0
171980,17,69,55,0
171990,14,83,52,0
172000,14,70,53,0
172010,5,63,40,0
172020,9,64,41,0
172030,9,73,31,0
172040,9,72,38,0
172050,10,62,38,0
172060,3,61,43,0
172071,11,63,32,0
172081,11,54,36,0
172091,6,64,37,0
172101,11,77,36,0
172111,17,87,35,0
172121,11,93,28,0
172131,15,84,31,0
172141,16,85,36,0
172151,17,89,38,0
172161,23,83,33,0
172171,14,70,40,0
172181,12,57,38,0
172191,17,81,43,0
172201,11,73,40,0
172211,8,103,35,0
172221,13,99,48,0
172231,7,120,45,0
172241,9,92,38,0
172251,7,89,43,0
172261,12,89,46,0
172271,13,75,47,0
172282,5,72,44,0
172292,9,73,47,0
172302,12,74,39,0
172312,4,125,37,0
172322,6,112,44,0
172332,6,98,41,0
172342,3,122,38,0
172352,8,110,38,0
172362,16,132,36,0
172372,15,138,32,0
172382,11,129,35,0
172392,15,143,33,0
172402,5,148,33,0
172412,13,133,47,0
172422,13,140,47,0
172432,6,128,41,0
172442,12,122,36,0
172452,12,136,48,0
172462,11,175,43,0
172472,11,164,36,0
172482,9,152,33,0
172493,9,161,35,0
172503,16,188,37,0
172513,6,228,45,0
172523,9,188,42,0
172533,15,170,44,0
172543,11,186,37,0
172553,8,171,41,0
172563,6,217,52,0
172573,15,194,48,0
172583,29,182,50,0
172593,69,155,62,0
172603,63,162,98,0
172613,89,181,85,0
172623,72,147,114,0
172633,60,158,110,0
172643,38,213,85,0
172653,28,223,72,0
172663,23,188,55,0
172673,23,180,46,0
172683,19,181,45,0
172694,10,193,47,0
172704,16,202,43,0
172714,14,200,40,0
172724,7,219,39,0
172734,7,267,35,0
172744,11,222,39,0
172754,11,194,37,0
172764,13,210,36,0
172774,8,183,35,0
172784,10,231,34,0
172794,3,223,29,0
172804,8,201,31,0
172814,8,304,40,0
172824,16,239,35,0
172834,13,251,38,0
172844,6,213,35,0
172854,16,184,34,0
172864,6,193,35,0
172874,8,193,39,0
172884,11,222,38,0
172894,13,184,33,0
172905,10,176,34,0
172915,13,175,39,0
172925,8,183,33,0
172935,10,162,39,0
172945,12,175,38,0
172955,11,147,42,0
172965,13,160,34,0
172975,10,149,31,0
172985,13,192,34,0
172995,13,231,41,0
173005,11,237,42,0
173015,9,269,48,0
173025,13,236,43,0
173035,10,196,42,0
173045,8,174,45,0
173055,13,187,41,0
173065,6,196,37,0
173075,11,178,46,0
173085,14,169,48,0
173095,9,170,41,0
173105,10,182,42,0
173116,10,238,46,0
173126,8,241,46,0
173136,17,275,49,0
173146,12,206,34,0
173156,13,217,44,0
173166,10,193,34,0
173176,14,251,42,0
173186,6,234,35,0
173196,13,226,42,0
173206,13,175,39,0
173216,11,159,40,0
173226,8,144,36,0
173236,4,137,44,0
173246,6,137,50,0
173256,8,142,50,0
173266,14,158,42,0
173276,6,192,39,0
173286,10,198,45,0
173296,6,210,41,0
173306,14,189,38,0
173316,11,199,59,0
173327,55,178,70,0
173337,62,222,94,0
173347,75,224,91,0
173357,87,194,117,0
173367,66,186,143,0
173377,44,183,129,0
173387,29,177,90,0
173397,25,183,72,0
173407,21,165,61,0
173417,20,212,59,0
173427,16,223,53,0
173437,16,262,53,0
173447,13,242,58,0
173457,7,224,58,0
173467,6,201,49,0
173477,9,169,42,0
173487,14,168,48,0
173497,12,174,49,0
173507,9,216,48,0
173517,8,204,62,0
173527,15,248,56,0
173538,10,248,43,0
173548,9,233,44,0
173558,5,223,41,0
173568,9,212,42,0
173578,18,239,44,0
173588,19,224,45,0
173598,17,215,36,0
173608,10,216,38,0
173618,16,176,40,0
173628,18,210,40,0
173638,13,203,39,0
173648,7,237,38,0
173658,7,276,35,0
173668,10,256,36,0
173678,7,215,43,0
173688,8,221,39,0
173698,5,188,38,0
173708,10,205,42,0
173718,4,192,42,0
173728,6,191,47,0
173738,13,212,46,0
173749,10,184,57,0
173759,9,159,52,0
173769,12,217,49,0
173779,4,209,49,0
173789,7,219,40,0
173799,10,218,42,0
173809,6,202,37,0
173819,9,168,36,0
173829,10,238,40,0
173839,10,206,43,0
173849,12,229,52,0
173859,10,214,51,0
173869,4,193,45,0
173879,12,201,39,0
173889,10,182,45,0
173899,13,150,48,0
173909,6,170,43,0
173919,8,176,50,0
173929,9,208,44,0
173939,15,173,43,0
173949,11,187,42,0
173960,14,209,38,0
173970,13,166,44,0
173980,9,164,46,0
173990,16,211,49,0
174000,12,187,40,0
174010,5,214,41,0
174020,4,227,40,0
174030,10,229,46,0
174040,6,191,48,0
174050,38,184,49,0
174060,57,165,47,0
174070,56,206,92,0
174080,76,192,81,0
174090,66,145,123,0
174100,43,174,117,0
174110,29,169,84,0
174120,28,176,68,0
174130,24,163,60,0
174140,13,182,50,0
174150,14,175,58,0
174161,15,142,66,0
174171,13,190,59,0
174181,19,242,54,0
174191,12,251,46,0
174201,11,225,47,0
174211,11,227,34,0
174221,11,253,40,0
174231,9,225,41,0
174241,11,190,53,0
174251,16,187,43,0
174261,7,179,45,0
174271,8,205,46,0
174281,8,209,46,0
174291,6,161,51,0
174301,11,162,63,0
174311,8,176,64,0
174321,8,204,61,0
174331,11,188,56,0
174341,9,175,53,0
174351,10,174,57,0
174361,10,224,58,0
174372,9,196,51,0
174382,9,178,43,0
174392,6,221,45,0
174402,11,212,40,0
174412,10,212,47,0
174422,9,234,46,0
174432,14,224,51,0
174442,14,227,56,0
174452,10,209,50,0
174462,13,186,42,0
174472,7,179,41,0
174482,7,181,45,0
174492,4,173,42,0
174502,6,191,37,0
174512,5,185,36,0
174522,13,191,35,0
174532,16,209,36,0
174542,12,191,38,0
174552,14,223,35,0
174562,13,243,37,0
174572,10,239,47,0
174583,9,225,41,0
174593,5,229,45,0
174603,15,229,46,0
174613,9,215,44,0
174623,18,205,59,0
174633,14,237,53,0
174643,10,175,48,0
174653,12,187,54,0
174663,9,183,46,0
174673,8,223,44,0
174683,16,193,42,0
174693,11,182,47,0
174703,10,215,50,0
174713,9,231,47,0
174723,11,173,48,0
174733,10,177,46,0
174743,4,161,45,0
174753,7,144,42,0
174763,15,149,45,0
174773,39,158,42,0
174783,55,228,39,0
174794,54,277,77,0
174804,81,273,74,0
174814,64,258,117,0
174824,46,245,123,0
174834,33,196,98,0
174844,26,178,77,0
174854,18,234,68,0
174864,19,259,58,0
174874,15,238,55,0
174884,15,308,53,702
174894,9,239,47,0
174904,12,209,44,0
174914,11,175,45,0
174924,14,223,45,0
174934,10,216,42,0
174944,12,181,47,0
174954,14,187,47,0
174964,7,182,46,0
174974,4,176,41,0
174984,8,177,37,0
174994,13,191,40,0
175005,13,173,41,0
175015,11,194,44,0
175025,6,185,45,0
175035,13,217,40,0
175045,9,170,43,0
175055,10,184,44,0
175065,13,169,47,0
175075,17,197,49,0
175085,6,168,39,0
175095,14,159,42,0
175105,13,212,44,0
175115,20,203,44,0
175125,12,214,44,0
175135,5,223,46,0
175145,11,201,35,0
175155,10,189,41,0
175165,14,195,37,0
175175,6,203,40,0
175185,9,188,37,0
175195,9,215,42,0
175205,11,197,45,0
175216,8,171,48,0
175226,12,186,49,0
175236,15,142,44,0
175246,13,181,46,0
175256,10,209,46,0
175266,13,229,46,0
175276,19,217,49,0
175286,12,252,44,0
175296,11,249,54,0
175306,16,234,50,0
175316,5,204,47,0
175326,9,214,48,0
175336,13,233,55,0
175346,10,195,55,0
175356,15,230,49,0
175366,11,212,49,0
175376,7,231,43,0
175386,14,199,51,0
175396,11,207,45,0
175406,9,170,42,0
175417,10,204,54,0
175427,11,207,52,0
175437,4,203,44,0
175447,4,182,41,0
175457,3,197,45,0
175467,4,231,42,0
175477,11,219,41,0
175487,26,218,50,0
175497,60,183,56,0
175507,51,189,101,0
175517,82,202,93,0
175527,81,187,130,0
175537,51,201,134,0
175547,40,262,106,0
175557,32,258,86,0
175567,18,241,63,0
175577,19,210,56,0
175587,18,241,49,0
175597,12,219,42,0
175607,12,188,35,0
175617,13,232,43,0
175628,14,208,40,0
175638,12,178,43,0
175648,9,168,45,0
175658,9,205,46,0
175668,14,168,42,0
175678,8,148,42,0
175688,12,182,41,0
175698,8,162,34,0
175708,6,143,32,0
175718,13,163,34,0
175728,10,207,41,0
175738,11,197,40,0
175748,13,227,47,0
175758,9,179,43,0
175768,18,224,45,0
175778,17,191,44,0
175788,15,261,42,0
175798,10,242,47,0
175808,9,279,44,0
175818,13,297,48,0
175828,7,267,40,0
175839,6,326,50,0
175849,9,274,48,0
175859,11,271,43,0
175869,13,312,44,0
175879,10,319,42,0
175889,12,325,37,0
175899,12,275,40,0
175909,6,215,35,0
175919,12,185,39,0
175929,12,168,28,0
175939,14,189,27,0
175949,15,261,27,0
175959,16,199,34,0
175969,15,204,42,0
175979,12,164,41,0
175989,13,161,45,0
175999,16,159,39,0
176009,2,163,36,0
176019,14,163,39,0
176029,13,181,40,0
176039,13,155,44,0
176050,14,130,42,0
176060,9,147,40,0
176070,14,154,40,0
176080,12,141,40,0
176090,6,157,46,0
176100,6,195,44,0
176110,15,159,54,0
176120,12,144,75,0
176130,16,118,63,0
176140,6,193,59,0
176150,15,210,55,0
176160,7,277,54,0
176170,12,238,47,0
176180,15,204,45,0
176190,10,216,44,0
176200,11,175,38,0
176210,13,142,35,0
176220,8,130,50,0
176230,10,148,49,0
176240,32,135,43,0
176250,65,117,50,0
176261,56,119,87,0
176271,83,105,78,0
176281,77,109,118,0
176291,56,110,139,0
176301,37,86,103,0
176311,26,105,71,0
176321,19,146,63,0
176331,16,117,60,0
176341,18,99,49,0
176351,15,90,44,0
176361,17,168,45,0
176371,11,164,41,0
176381,7,292,31,0
176391,13,246,34,0
176401,12,200,38,0
176411,7,169,40,0
176421,5,133,36,0
176431,10,148,34,0
176441,11,121,32,0
176451,3,116,34,0
176462,6,122,38,0
176472,11,129,49,0
176482,6,111,47,0
176492,18,102,47,0
176502,11,79,35,0
176512,18,87,37,0
176522,16,146,36,0
176532,18,128,40,0
176542,13,150,41,0
176552,9,190,42,0
176562,9,146,40,0
176572,11,114,36,0
176582,9,96,42,0
176592,9,87,38,0
176602,13,90,43,0
176612,11,97,45,0
176622,14,97,45,0
176632,8,82,36,0
176642,8,75,48,0
176652,13,62,42,0
176662,6,74,47,0
176673,9,71,49,0
176683,17,86,73,0
176693,13,88,70,0
176703,8,97,59,0
176713,6,100,51,0
176723,11,118,38,0
176733,7,132,34,0
176743,13,137,35,0
176753,11,147,42,0
176763,8,119,46,0
176773,6,100,49,0
176783,8,87,37,0
176793,9,88,42,0
176803,13,87,35,0
176813,4,117,35,0
176823,7,155,36,0
176833,11,171,39,0
176843,6,124,39,0
176853,10,131,33,0
176863,7,116,42,0
176873,5,161,46,0
176884,16,133,53,1001
176894,10,132,53,0
176904,12,123,58,0
176914,14,122,52,0
176924,12,104,58,0
176934,13,100,57,0
176944,18,102,53,0
176954,9,97,45,0
176964,11,90,57,0
176974,7,100,73,0
176984,10,77,59,0
176994,34,91,71,0
177004,60,147,83,0
177014,64,137,118,0
177024,79,191,101,0
177034,63,144,117,0
177044,52,105,119,0
177054,34,111,86,0
177064,28,112,67,0
177074,21,113,61,0
177084,20,102,58,0
177095,16,105,49,0
177105,11,159,46,0
177115,12,156,44,0
177125,11,141,51,0
177135,6,132,42,0
177145,11,122,41,0
177155,12,108,36,0
177165,13,99,34,0
177175,6,82,43,0
177185,16,132,40,0
177195,10,142,41,0
177205,9,166,41,0
177215,7,146,32,0
177225,5,129,35,0
177235,6,117,34,0
177245,9,129,33,0
177255,7,105,34,0
177265,14,95,41,0
177275,17,87,40,0
177285,11,67,38,0
177295,14,66,40,0
177306,6,77,47,0
177316,14,96,40,0
177326,4,103,37,0
177336,8,80,34,0
177346,10,76,36,0
177356,11,60,33,0
177366,7,82,35,0
177376,6,85,35,0
177386,14,70,41,0
177396,11,121,48,0
177406,10,139,46,0
177416,5,171,54,0
177426,16,144,52,0
177436,12,135,46,0
177446,12,108,47,0
177456,13,116,43,0
177466,8,107,37,0
177476,8,125,34,0
177486,12,97,32,0
177496,9,79,36,0
177506,11,74,41,0
177517,8,96,41,0
177527,7,111,38,0
177537,7,110,41,0
177547,14,119,29,0
177557,5,97,36,0
177567,13,102,31,0
177577,12,85,38,0
177587,11,75,44,0
177597,7,80,43,0
177607,3,69,44,0
177617,6,61,38,0
177627,12,73,36,0
177637,9,77,38,0
177647,12,65,42,0
177657,16,62,37,0
177667,8,66,40,0
177677,6,55,49,0
177687,5,67,39,0
177697,11,67,46,0
177707,17,61,52,0
177717,15,81,57,0
177728,12,82,48,0
177738,6,76,42,0
177748,31,68,56,0
177758,55,90,56,0
177768,59,77,86,0
177778,83,102,95,0
177788,89,80,124,0
177798,58,70,136,0
177808,39,85,107,0
177818,25,120,77,0
177828,19,163,66,0
177838,15,215,49,0
177848,24,169,51,0
177858,16,172,43,0
177868,15,198,43,0
177878,9,151,37,0
177888,5,133,46,0
177898,11,105,45,0
177908,7,94,43,0
177918,6,102,33,0
177928,8,85,35,0
177939,11,87,34,0
177949,11,86,34,0
177959,10,72,34,0
177969,10,65,37,0
177979,12,91,37,0
177989,10,87,32,0
177999,12,86,33,0
178009,16,77,40,0
178019,9,78,40,0
178029,12,77,43,0
178039,15,93,39,0
178049,9,83,40,0
178059,6,104,38,0
178069,7,106,35,0
178079,11,101,43,0
178089,8,100,41,0
178099,10,78,40,0
178109,8,76,39,0
178119,11,73,41,0
178129,10,61,32,0
178139,11,66,39,0
178150,14,77,38,0
178160,16,68,38,0
178170,9,94,32,0
178180,11,119,31,0
178190,7,100,31,0
178200,7,78,30,0
178210,11,84,43,0
178220,8,71,42,0
178230,5,71,37,0
178240,10,62,37,0
178250,6,73,40,0
178260,5,65,33,0
178270,8,71,39,0
178280,13,75,35,0
178290,6,91,38,0
178300,14,78,45,0
178310,10,90,48,0
178320,12,91,40,0
178330,12,91,60,0
178340,14,78,52,0
178350,9,74,44,0
178361,12,102,42,0
178371,17,94,39,0
178381,15,98,35,0
178391,13,76,42,0
178401,16,86,39,0
178411,10,112,34,0
178421,14,98,38,0
178431,9,116,41,0
178441,6,103,45,0
178451,31,77,35,0
178461,57,85,40,0
178471,55,83,74,0
178481,85,90,70,0
178491,83,80,94,0
178501,54,71,91,0
178511,41,67,75,0
178521,25,64,58,0
178531,26,61,52,0
178541,18,84,46,0
178551,21,83,33,0
178561,12,104,36,0
178572,12,92,41,0
178582,12,72,35,0
178592,15,81,44,1000
178602,11,73,39,800
178612,12,66,39,0
178622,15,84,40,0
178632,7,87,45,0
178642,10,111,45,0
178652,7,92,39,0
178662,10,108,36,0
178672,7,94,39,0
178682,14,79,39,0
178692,8,100,40,0
178702,11,99,33,0
178712,20,100,37,0
178722,25,103,41,0
178732,19,97,41,0
178742,14,89,49,0
178752,10,84,37,0
178762,11,83,37,0
178773,9,74,39,0
178783,13,64,44,0
178793,5,66,31,0
178803,14,55,41,0
178813,12,56,38,0
178823,13,52,38,0
178833,10,56,31,0
178843,13,55,42,0
178853,10,85,43,0
178863,9,85,48,0
178873,10,84,47,0
178883,12,103,37,0
178893,7,100,40,0
178903,10,78,36,0
178913,12,69,39,0
178923,16,77,33,0
178933,9,70,34,0
178943,9,58,30,0
178953,10,61,33,0
178963,10,54,31,0
178973,8,123,37,0
178984,9,114,36,0
178994,15,156,40,0
179004,13,131,52,0
179014,13,101,46,0
179024,14,87,50,0
179034,10,74,47,0
179044,11,60,49,0
179054,10,68,45,0
179064,11,73,39,0
179074,14,71,40,0
179084,16,64,36,0
179094,7,69,29,0
179104,10,103,37,0
179114,11,86,43,0
179124,18,99,36,0
179134,61,110,42,0
179144,62,88,64,0
179154,79,88,90,0
179164,85,82,92,0
179174,78,70,127,0
179184,52,75,106,0
179195,35,90,85,0
179205,25,89,61,0
179215,20,117,57,0
179225,15,110,53,0
179235,17,137,40,0
179245,12,118,39,0
179255,8,130,40,0
179265,9,125,43,0
179275,12,134,52,0
179285,7,101,37,0
179295,11,109,39,0
179305,5,99,39,0
179315,7,87,33,0
179325,9,72,39,0
179335,5,53,33,0
179345,6,62,32,0
179355,10,80,29,0
179365,4,101,40,0
179375,13,130,47,0
179385,11,134,37,0
179395,20,116,41,0
179406,21,94,40,0
179416,15,79,31,0
179426,11,78,30,0
179436,12,84,28,0
179446,13,76,34,0
179456,13,91,32,0
179466,10,117,39,0
179476,9,93,29,0
179486,14,84,36,0
179496,12,83,44,0
179506,17,104,42,0
179516,10,99,42,0
179526,7,81,35,0
179536,8,83,38,0
179546,12,69,42,0
179556,11,63,37,0
179566,12,85,39,0
179576,9,86,37,0
179586,11,107,42,0
179596,14,119,35,0
179606,5,173,35,0
179617,6,159,39,0
179627,7,133,34,0
179637,9,106,36,0
179647,9,89,33,0
179657,14,101,30,0
179667,8,102,37,0
179677,7,110,38,0
179687,4,99,41,0
179697,8,78,39,0
179707,14,76,34,0
179717,10,70,39,0
179727,9,97,33,0
179737,15,103,44,0
179747,5,100,38,0
179757,13,105,36,0
179767,10,77,36,0
179777,11,76,33,0
179787,8,76,37,0
179797,8,90,31,0
179807,11,86,40,0
179817,7,112,51,0
179828,22,115,47,0
179838,59,106,49,0
179848,60,91,79,0
179858,76,79,89,0
179868,85,80,105,0
179878,63,79,131,0
179888,46,79,113,0
179898,27,87,85,0
179908,26,94,70,0
179918,15,113,48,0
179928,14,127,44,0
179938,20,87,40,0
179948,11,88,45,0
179958,17,73,35,0
179968,16,73,35,0
179978,15,113,37,0
179988,11,168,37,0
179998,8,144,40,0
180008,12,138,36,0
180018,15,126,34,0
180028,10,130,35,0
180039,10,124,37,0
180049,8,102,32,0
180059,11,92,37,0
180069,13,74,31,0
180079,13,69,28,0
180089,19,69,39,0
180099,13,74,36,801
180109,22,80,29,0
180119,14,119,33,0
180129,11,125,49,0
180139,5,107,53,0
180149,8,136,50,0
180159,14,160,45,0
180169,9,112,46,0
180179,13,91,43,0
180189,8,87,43,0
180199,4,78,36,0
180209,16,82,37,0
180219,10,74,35,0
180229,12,100,39,0
180239,10,91,30,0
180250,11,101,36,0
180260,5,120,35,0
180270,8,173,33,0
180280,9,193,38,0
180290,9,151,42,0
180300,13,159,38,0
180310,13,154,38,0
180320,11,168,42,0
180330,15,139,41,0
180340,4,117,38,0
180350,7,206,39,0
180360,8,232,38,0
180370,4,192,49,0
180380,3,283,45,0
180390,12,246,41,0
180400,13,192,39,0
180410,7,146,38,0
180420,14,194,35,0
180430,17,172,43,0
180440,16,138,41,0
180450,8,115,49,0
180461,10,140,44,0
180471,4,181,44,0
180481,10,176,43,0
180491,13,267,53,0
180501,9,212,39,0
180511,8,177,34,0
180521,13,142,38,0
180531,9,157,34,0
180541,5,164,45,0
180551,21,154,46,0
180561,57,173,49,0
180571,53,201,73,0
180581,65,195,71,0
180591,88,283,89,0
180601,71,240,126,0
180611,47,235,115,0
180621,32,193,79,0
180631,24,151,72,0
180641,27,158,71,0
180651,21,220,63,0
180661,18,214,59,0
180672,11,339,50,0
180682,11,367,51,0
180692,10,282,50,0
180702,8,287,47,0
180712,12,252,46,0
180722,8,225,38,0
180732,12,228,46,0
180742,7,169,44,0
180752,5,159,35,0
180762,6,188,34,0
180772,5,155,39,0
180782,15,204,39,0
180792,7,211,48,0
180802,15,218,47,0
180812,13,219,53,0
180822,6,222,44,0
180832,11,229,50,0
180842,15,198,67,0
180852,12,198,59,0
180862,17,187,49,0
180873,15,191,48,0
180883,11,193,51,0
180893,9,222,48,0
180903,17,247,42,0
180913,6,208,49,0
180923,15,206,51,0
180933,15,179,51,0
180943,9,154,53,0
180953,8,130,48,0
180963,16,132,51,0
180973,9,135,39,0
180983,15,128,43,0
180993,11,133,39,0
181003,12,153,53,0
181013,14,135,49,0
181023,13,167,49,0
181033,11,142,45,0
181043,10,137,43,0
181053,17,161,39,0
181063,13,139,42,0
181073,10,135,42,0
181084,7,137,39,0
181094,7,136,37,0
181104,7,126,33,0
181114,14,156,42,0
181124,10,217,57,0
181134,8,205,45,0
181144,8,211,50,0
181154,11,188,49,0
181164,12,163,62,0
181174,10,166,44,0
181184,8,203,40,0
181194,9,233,42,0
181204,6,198,40,0
181214,5,200,46,0
181224,8,178,43,0
181234,11,170,42,0
181244,15,216,37,0
181254,13,265,32,0
181264,12,227,34,0
181274,11,188,45,0
181284,26,207,52,0
181295,68,180,81,0
181305,56,185,114,0
181315,77,166,92,0
181325,69,170,121,0
181335,56,163,138,0
181345,36,185,101,0
181355,31,169,79,0
181365,21,149,60,0
181375,20,191,55,0
181385,17,182,46,0
181395,17,178,40,0
181405,14,161,39,0
181415,10,175,31,0
181425,12,190,39,0
181435,13,169,43,0
181445,14,139,48,0
181455,9,171,47,0
181465,8,189,56,0
181475,14,273,54,0
181485,8,229,47,0
181495,8,246,44,0
181506,15,232,50,0
181516,12,227,52,0
181526,22,203,44,0
181536,11,199,46,0
181546,18,182,50,0
181556,17,171,49,0
181566,7,186,51,0
181576,12,225,51,0
181586,9,213,57,0
181596,9,260,49,0
181606,15,200,45,0
181616,11,204,40,0
181626,11,141,48,0
181636,12,135,50,0
181646,10,119,44,0
181656,5,131,50,0
181666,9,157,50,0
181676,7,157,48,0
181686,9,135,41,0
181696,10,132,50,0
181706,10,155,53,0
181717,11,173,52,0
181727,11,221,49,0
181737,15,282,49,0
181747,12,301,50,0
181757,13,269,44,0
181767,9,217,42,0
181777,12,211,45,0
181787,4,230,50,0
181797,8,203,38,0
181807,11,209,42,0
181817,10,211,40,0
181827,12,203,42,0
181837,18,197,46,0
181847,13,183,52,0
181857,6,189,48,0
181867,15,164,44,0
181877,10,191,52,0
181887,12,155,54,0
181897,11,224,48,0
181907,15,227,68,0
181917,8,216,60,0
181928,11,220,66,0
181938,12,216,59,0
181948,7,182,57,0
181958,9,155,45,0
181968,12,143,44,0
181978,12,117,56,0
181988,9,154,63,0
181998,22,189,63,0
182008,60,230,78,0
182018,54,210,112,0
182028,78,196,92,0
182038,74,185,127,0
182048,53,189,125,0
182058,43,195,96,0
182068,31,196,73,0
182078,28,181,60,0
182088,19,186,53,0
182098,15,148,50,0
182108,10,149,47,0
182118,16,166,51,0
182129,14,130,50,0
182139,13,162,54,0
182149,15,142,52,0
182159,6,172,42,0
182169,6,168,54,0
182179,14,157,57,0
182189,5,156,50,0
182199,6,158,40,0
182209,5,141,46,0
182219,11,167,52,0
182229,15,168,45,0
182239,15,200,40,0
182249,19,199,57,0
182259,13,179,48,0
182269,16,148,54,0
182279,11,136,47,0
182289,16,143,43,0
182299,12,128,42,0
182309,10,138,47,0
182319,11,141,48,0
182329,8,140,52,0
182340,14,134,45,0
182350,6,132,40,0
182360,14,164,39,0
182370,12,180,42,0
182380,9,175,41,0
182390,11,181,46,0
182400,6,219,41,0
182410,8,220,45,0
182420,11,179,49,0
182430,10,161,42,0
182440,16,136,39,0
182450,3,121,43,0
182460,8,126,37,0
182470,8,143,42,0
182480,14,136,47,0
182490,11,156,62,0
182500,10,183,66,0
182510,9,148,55,0
182520,14,131,45,0
182530,8,140,45,0
182540,14,140,50,0
182551,15,135,47,0
182561,7,154,56,0
182571,9,169,51,0
182581,4,150,50,0
182591,5,161,54,0
182601,9,137,53,0
182611,10,146,51,0
182621,10,162,48,0
182631,5,142,50,0
182641,13,168,49,0
182651,14,178,60,0
182661,8,233,61,0
182671,16,210,68,0
182681,7,203,64,0
182691,21,178,64,0
182701,58,172,88,0
182711,56,177,121,0
182721,79,234,100,0
182731,78,210,143,0
182741,56,225,149,0
182751,41,214,109,0
182762,27,181,89,0
182772,23,174,83,0
182782,21,178,67,0
182792,20,179,62,0
182802,19,181,68,0
182812,14,168,64,0
182822,12,202,58,0
182832,16,175,49,0
182842,14,163,48,0
182852,9,176,56,0
182862,6,166,50,0
182872,16,170,55,0
182882,15,209,73,0
182892,13,227,66,0
182902,9,227,76,0
182912,9,254,65,0
182922,10,252,52,0
182932,10,242,50,0
182942,15,227,51,0
182952,16,233,60,0
182962,15,263,62,0
182973,11,224,59,0
182983,11,202,57,0
182993,13,181,55,0
183003,14,239,61,0
183013,7,261,68,0
183023,15,237,52,0
183033,11,254,58,0
183043,11,248,51,0
183053,12,206,42,0
183063,7,197,40,0
183073,17,251,41,0
183083,10,217,40,0
183093,11,230,37,0
183103,16,194,43,802
183113,11,186,48,0
183123,12,236,65,0
183133,15,182,57,0
183143,14,190,60,0
183153,8,178,55,0
183163,5,153,53,0
183173,9,154,60,0
183184,13,152,61,0
183194,8,161,58,0
183204,17,165,55,0
183214,13,242,49,0
183224,7,222,68,0
183234,9,265,84,0
183244,16,201,72,0
183254,13,187,70,0
183264,12,211,65,0
183274,5,251,76,0
183284,18,241,59,0
183294,14,195,63,0
183304,8,176,60,0
183314,14,174,59,0
183324,20,166,62,0
183334,15,161,67,0
183344,14,196,62,0
183354,16,191,51,0
183364,12,203,48,0
183374,8,166,47,0
183385,19,131,50,0
183395,51,155,64,0
183405,50,167,88,0
183415,69,177,92,0
183425,83,181,129,0
183435,60,200,150,0
183445,42,196,138,0
183455,30,195,112,0
183465,22,212,96,0
183475,21,176,75,0
183485,20,170,66,0
183495,15,133,64,0
183505,18,153,58,0
183515,17,127,47,0
183525,17,128,59,0
183535,14,146,52,0
183545,12,166,54,0
183555,8,171,51,0
183565,11,163,47,0
183575,16,141,45,0
183585,15,165,44,0
183596,9,154,52,0
183606,8,140,44,0
183616,15,148,41,0
183626,15,152,54,0
183636,9,144,67,0
183646,18,129,54,0
183656,19,121,47,0
183666,17,127,47,0
183676,12,132,55,0
183686,18,117,53,0
183696,7,90,41,0
183706,7,99,39,0
183716,9,99,47,0
183726,15,146,49,0
183736,11,166,43,0
183746,7,192,42,0
183756,15,163,48,0
183766,13,147,48,0
183776,11,133,37,0
183786,13,114,37,0
183796,4,121,44,0
183807,10,148,52,0
183817,16,168,46,0
183827,14,174,49,0
183837,8,158,47,0
183847,9,144,48,0
183857,5,147,52,0
183867,15,170,54,0
183877,10,163,54,0
183887,14,153,52,0
183897,13,137,48,0
183907,10,120,49,0
183917,9,121,51,0
183927,9,134,54,0
183937,8,128,61,0
183947,10,157,54,0
183957,9,202,51,0
183967,14,183,47,0
183977,10,158,50,0
183987,9,175,70,0
183997,6,167,65,0
184007,9,164,63,0
184018,7,143,55,0
184028,13,147,55,0
184038,10,161,59,0
184048,8,153,53,0
184058,9,192,56,0
184068,15,203,49,0
184078,12,219,50,0
184088,13,187,50,0
184098,8,179,47,0
184108,17,159,47,0
184118,55,140,53,0
184128,52,150,113,0
184138,73,164,100,0
184148,81,134,134,0
184158,60,110,156,0
184168,42,150,127,0
184178,32,141,99,0
184188,16,187,76,0
184198,22,187,62,0
184208,22,213,52,0
184218,19,170,51,0
184229,17,164,47,0
184239,11,157,49,0
184249,13,187,48,0
184259,13,143,59,0
184269,11,157,52,0
184279,9,166,51,0
184289,16,144,54,0
184299,14,151,55,0
184309,17,137,52,0
184319,14,128,53,0
184329,10,149,60,0
184339,8,147,45,0
184349,10,146,41,0
184359,7,139,42,0
184369,11,123,46,0
184379,13,150,41,0
184389,13,151,44,0
184399,8,156,36,0
184409,13,159,34,0
184419,16,124,34,0
184429,9,131,44,0
184440,6,155,43,0
184450,11,167,31,0
184460,13,152,31,0
184470,10,136,28,0
184480,14,109,36,0
184490,13,164,37,0
184500,10,166,45,0
184510,16,196,43,0
184520,17,200,41,0
184530,15,157,51,0
184540,15,151,50,0
184550,7,138,44,0
184560,6,152,45,0
184570,15,163,48,0
184580,6,147,44,0
184590,10,135,43,0
184600,5,155,48,0
184610,8,127,43,0
184620,11,138,39,0
184630,10,136,46,0
184640,10,141,37,0
184651,12,117,35,0
184661,7,211,36,0
184671,11,188,41,0
184681,10,201,35,0
184691,5,176,36,0
184701,12,188,40,0
184711,9,137,41,0
184721,13,126,38,0
184731,13,131,45,0
184741,10,131,42,0
184751,12,147,58,0
184761,13,134,40,0
184771,11,119,53,0
184781,7,116,59,0
184791,6,102,48,0
184801,9,121,52,0
184811,9,125,39,0
184821,8,154,44,0
184831,16,183,41,0
184841,4,194,39,0
184852,12,218,39,0
184862,11,223,40,0
184872,9,246,41,0
184882,46,213,55,0
184892,54,178,89,0
184902,71,170,115,0
184912,93,207,105,0
184922,77,173,143,0
184932,51,198,155,0
184942,37,184,111,0
184952,31,215,83,0
184962,21,207,69,0
184972,16,236,64,0
184982,18,217,52,0
184992,14,165,53,0
185002,10,135,45,0
185012,19,106,47,0
185022,10,93,40,0
185032,6,77,39,0
185042,14,108,39,0
185052,8,96,35,0
185063,12,119,39,0
185073,9,157,35,0
185083,15,143,34,0
185093,13,204,36,0
185103,12,208,39,1001
185113,7,159,36,0
185123,7,119,36,0
185133,12,126,30,0
185143,10,124,27,0
185153,16,101,36,0
185163,13,103,37,0
185173,10,113,35,0
185183,13,117,41,0
185193,10,111,42,0
185203,16,127,35,0
185213,5,142,35,0
185223,11,158,32,0
185233,9,182,33,0
185243,13,142,37,0
185253,12,130,37,0
185263,15,109,31,0
185274,7,89,35,0
185284,9,65,34,0
185294,6,55,32,0
185304,6,49,29,0
185314,12,50,32,0
185324,7,72,38,0
185334,10,93,31,0
185344,16,144,32,0
185354,9,188,34,0
185364,5,186,38,0
185374,5,163,42,0
185384,11,124,38,0
185394,11,89,35,0
185404,15,76,41,0
185414,13,69,45,0
185424,11,57,42,0
185434,12,62,39,0
185444,7,55,34,0
185454,14,56,45,0
185464,3,64,42,0
185474,6,102,44,0
185485,9,104,55,0
185495,6,92,52,0
185505,5,97,66,0
185515,2,86,64,0
185525,4,101,57,0
185535,9,149,52,0
185545,8,132,60,0
185555,10,201,58,0
185565,8,166,63,0
185575,8,134,70,0
185585,11,121,95,0
185595,8,129,80,0
185605,12,118,73,0
185615,15,95,58,0
185625,10,73,67,0
185635,11,69,56,0
185645,39,83,65,0
185655,59,76,86,0
185665,65,75,103,0
185675,83,61,94,0
185685,70,52,135,0
185696,51,56,120,0
185706,37,55,90,0
185716,28,61,74,0
185726,18,52,56,0
185736,10,60,46,0
185746,17,52,45,0
185756,16,53,42,0
185766,7,95,39,0
185776,10,97,43,0
185786,15,90,38,0
185796,11,81,37,0
185806,16,63,41,0
185816,10,52,35,0
185826,13,73,32,0
185836,13,78,37,0
185846,11,93,36,0
185856,8,77,36,0
185866,8,65,35,0
185876,15,70,36,0
185886,17,69,48,0
185896,8,60,40,0
185907,16,60,43,0
185917,16,61,37,0
185927,11,74,38,0
185937,10,81,42,0
185947,11,78,40,0
185957,13,69,43,0
185967,13,66,35,0
185977,10,72,42,0
185987,5,71,38,0
185997,7,102,38,0
186007,10,90,51,0
186017,8,76,47,0
186027,14,92,45,0
186037,10,77,44,0
186047,6,71,42,0
186057,15,56,39,0
186067,12,63,35,0
186077,13,69,34,0
186087,11,58,37,0
186097,11,61,28,0
186107,13,66,35,0
186118,10,62,40,0
186128,16,54,42,0
186138,6,45,37,0
186148,13,66,31,0
186158,12,64,34,0
186168,12,64,41,0
186178,8,58,38,0
186188,15,63,47,0
186198,12,57,35,0
186208,4,59,35,0
186218,11,68,43,0
186228,15,71,45,0
186238,7,58,39,0
186248,13,56,34,0
186258,7,61,47,0
186268,10,60,45,0
186278,9,61,43,0
186288,11,51,46,0
186298,16,52,45,0
186308,11,51,40,0
186318,12,48,50,0
186329,8,50,45,0
186339,10,52,44,0
186349,8,55,34,0
186359,13,44,38,0
186369,9,51,40,0
186379,14,49,45,0
186389,11,55,55,0
186399,29,46,57,0
186409,64,50,71,0
186419,57,56,102,0
186429,75,78,95,0
186439,82,76,137,0
186449,48,72,149,0
186459,35,56,110,0
186469,23,57,78,0
186479,13,45,69,0
186489,10,51,55,0
186499,13,71,54,0
186509,16,85,41,0
186519,16,68,33,0
186529,11,52,40,0
186540,14,49,36,0
186550,6,55,37,0
186560,9,54,34,0
186570,11,48,36,0
186580,13,53,37,0
186590,16,52,32,0
186600,10,63,32,0
186610,11,66,40,0
186620,10,60,38,0
186630,8,52,39,0
186640,11,54,35,0
186650,12,58,37,0
186660,16,56,41,0
186670,16,58,44,0
186680,16,57,41,0
186690,5,57,40,0
186700,9,57,46,0
186710,5,55,35,0
186720,12,54,27,0
186730,7,53,33,0
186741,6,44,39,0
186751,13,46,42,0
186761,5,49,33,0
186771,16,56,43,0
186781,7,51,41,0
186791,17,53,38,0
186801,14,46,42,0
186811,9,45,48,0
186821,4,56,47,0
186831,8,50,47,0
186841,8,46,51,0
186851,7,43,42,0
186861,10,37,38,0
186871,14,41,45,0
186881,6,54,37,0
186891,6,45,41,1000
186901,9,56,41,800
186911,8,45,38,0
186921,8,46,44,0
186931,13,58,39,0
186941,2,62,34,0
186952,7,63,34,0
186962,8,69,31,0
186972,16,58,35,0
186982,5,59,31,0
186992,7,53,39,0
187002,8,51,52,0
187012,8,64,48,0
187022,8,53,41,0
187032,16,57,52,0
187042,11,54,50,0
187052,11,61,42,0
187062,5,58,38,0
187072,6,57,32,0
187082,9,52,39,0
187092,10,42,39,0
187102,7,49,37,0
187112,8,45,42,0
187122,15,36,38,0
187132,10,47,46,0
187142,6,45,43,0
187152,14,53,54,0
187163,25,54,55,0
187173,58,58,81,0
187183,56,55,105,0
187193,83,56,100,0
187203,83,49,150,0
187213,63,49,147,0
187223,36,58,124,0
187233,31,58,100,0
187243,23,52,77,0
187253,22,48,71,0
187263,20,52,60,0
187273,20,40,56,0
187283,16,48,50,0
187293,12,59,46,0
187303,14,50,51,0
187313,6,55,47,0
187323,12,43,37,0
187333,6,48,35,0
187343,10,50,41,0
187353,11,47,45,0
187363,7,44,42,0
187374,13,35,40,0
187384,7,35,36,0
187394,8,44,39,0
187404,8,38,30,0
187414,16,40,35,0
187424,15,52,37,0
187434,21,58,46,0
187444,13,57,56,0
187454,7,52,41,0
187464,9,56,49,0
187474,11,50,41,0
187484,10,41,41,0
187494,11,33,35,0
187504,7,48,35,0
187514,14,59,45,0
187524,16,45,61,0
187534,10,44,52,0
187544,15,40,51,0
187554,16,53,49,0
187564,10,67,40,0
187574,11,62,46,0
187585,11,69,41,0
187595,12,65,50,0
187605,13,58,48,0
187615,4,44,55,0
187625,9,51,56,0
187635,7,52,51,0
187645,2,56,62,0
187655,6,59,49,0
187665,5,46,54,0
187675,7,46,39,0
187685,12,44,38,0
187695,12,49,38,0
187705,8,57,38,0
187715,5,55,37,0
187725,10,49,42,0
187735,14,51,49,0
187745,12,44,40,0
187755,8,46,46,0
187765,11,49,38,0
187775,9,37,35,0
187785,15,35,33,0
187796,9,42,26,0
187806,11,46,31,0
187816,9,55,35,0
187826,15,56,35,0
187836,15,47,41,0
187846,10,41,32,0
187856,16,45,46,0
187866,10,41,54,0
187876,16,53,55,0
187886,53,38,85,0
187896,47,39,114,0
187906,71,45,97,0
187916,75,44,115,0
187926,64,45,136,0
187936,40,51,110,0
187946,30,49,78,0
187956,24,52,65,0
187966,25,53,47,0
187976,21,46,44,0
187986,23,44,45,0
187996,13,50,37,0
188007,14,58,35,0
188017,9,41,30,0
188027,15,49,33,0
188037,18,49,32,0
188047,10,49,38,0
188057,9,49,51,0
188067,11,41,46,0
188077,10,41,38,0
188087,10,35,40,0
188097,12,31,44,0
188107,14,27,37,0
188117,13,31,38,0
188127,12,33,35,0
188137,13,45,41,0
188147,12,44,48,0
188157,17,43,57,0
188167,15,42,52,0
188177,7,53,42,0
188187,19,43,42,0
188197,15,44,41,0
188207,9,47,39,0
188218,10,49,41,0
188228,5,57,40,0
188238,13,68,41,0
188248,14,51,44,0
188258,15,58,42,0
188268,9,68,40,0
188278,13,60,43,0
188288,15,48,50,0
188298,13,48,43,0
188308,7,44,36,0
188318,12,49,31,0
188328,13,55,32,0
188338,6,65,38,0
188348,13,52,47,0
188358,8,60,39,0
188368,6,79,39,0
188378,13,67,45,0
188388,5,53,39,0
188398,13,49,42,801
188408,10,50,37,0
188418,12,45,32,0
188429,12,49,39,0
188439,14,48,32,0
188449,7,61,34,0
188459,11,64,38,0
188469,8,55,39,0
188479,5,53,41,0
188489,8,55,51,0
188499,7,62,52,0
188509,12,45,48,0
188519,12,49,59,0
188529,8,60,56,0
188539,7,51,44,0
188549,15,52,42,0
188559,15,46,42,0
188569,10,52,39,0
188579,7,39,35,0
188589,5,52,32,0
188599,10,55,45,0
188609,12,77,37,0
188619,13,74,39,0
188629,13,74,35,0
188640,12,158,39,0
188650,36,160,50,0
188660,64,161,65,0
188670,62,125,99,0
188680,93,100,100,0
188690,71,87,139,0
188700,49,97,148,0
188710,35,140,115,0
188720,20,119,88,0
188730,25,112,74,0
188740,16,124,56,0
188750,17,98,50,0
188760,18,120,54,0
188770,15,106,48,0
188780,12,116,47,0
188790,8,91,43,0
188800,9,132,42,0
188810,15,140,46,0
188820,10,184,40,0
188830,5,132,36,0
188840,13,160,33,0
188851,7,143,36,0
188861,10,126,34,0
188871,17,105,33,0
188881,15,98,37,0
188891,10,94,33,0
188901,16,86,33,0
188911,16,68,33,0
188921,17,77,36,0
188931,9,95,42,0
188941,6,145,35,0
188951,15,152,38,0
188961,16,146,31,0
188971,7,120,30,0
188981,18,120,36,0
188991,6,117,43,0
189001,11,138,47,0
189011,18,126,40,0
189021,13,133,39,0
189031,9,118,46,0
189041,11,149,45,0
189051,7,137,35,0
189062,7,195,41,0
189072,7,179,40,0
189082,9,181,52,0
189092,6,171,47,0
189102,12,145,50,0
189112,4,120,39,0
189122,10,180,39,0
189132,13,173,34,0
189142,8,152,45,0
189152,4,132,44,0
189162,7,119,43,0
189172,5,88,40,0
189182,5,106,48,0
189192,12,154,53,0
189202,12,128,45,0
189212,7,127,45,0
189222,7,122,44,0
189232,12,121,64,0
189242,13,155,60,0
189252,15,157,52,0
189262,7,149,48,0
189273,8,137,41,0
189283,15,140,43,0
189293,13,149,52,0
189303,16,139,46,0
189313,10,213,56,0
189323,13,170,51,0
189333,12,165,47,0
189343,15,160,48,0
189353,11,134,38,0
189363,4,130,56,0
189373,12,146,47,0
189383,12,145,43,0
189393,5,187,44,0
189403,8,184,38,0
189413,6,179,39,0
189423,7,154,53,0
189433,26,147,50,0
189443,64,148,88,0
189453,55,192,122,0
189463,74,196,108,0
189474,80,160,154,0
189484,58,183,138,0
189494,43,190,102,0
189504,26,144,88,0
189514,23,191,77,0
189524,18,192,64,0
189534,18,240,58,0
189544,15,250,51,0
189554,12,224,45,0
189564,15,185,48,0
189574,17,192,44,0
189584,13,155,44,0
189594,12,158,50,0
189604,20,202,53,0
189614,12,177,47,0
189624,12,120,56,0
189634,7,170,47,0
189644,7,153,50,0
189654,9,164,55,0
189664,10,165,47,0
189674,6,174,53,0
189685,6,184,43,0
189695,16,147,47,0
189705,11,164,52,0
189715,17,173,61,0
189725,13,154,56,0
189735,13,151,48,0
189745,15,161,49,0
189755,18,175,41,0
189765,13,223,46,0
189775,7,171,52,0
189785,8,198,45,0
189795,16,176,44,0
189805,12,164,39,0
189815,4,143,40,0
189825,11,175,41,0
189835,15,154,39,0
189845,10,210,38,0
189855,12,248,42,0
189865,9,247,34,0
189875,7,214,43,0
189885,8,180,39,0
189896,5,154,45,0
189906,9,143,38,0
189916,12,165,43,0
189926,8,193,48,0
189936,15,163,46,0
189946,9,164,43,0
189956,13,144,46,0
189966,10,162,47,0
189976,10,131,49,0
189986,14,191,45,0
189996,10,170,47,0
190006,10,215,42,0
190016,18,192,41,0
190026,12,149,41,0
190036,9,117,42,0
190046,11,122,37,0
190056,13,153,41,0
190066,9,149,40,0
190076,6,134,46,0
190086,15,218,45,0
190096,13,193,43,0
190107,16,184,49,0
190117,9,144,49,0
190127,8,185,45,0
190137,16,192,49,0
190147,15,238,49,0
190157,7,234,52,0
190167,13,194,42,0
190177,25,196,47,0
190187,54,145,60,0
190197,58,179,87,0
190207,80,243,79,0
190217,85,223,117,0
190227,51,196,135,0
190237,38,234,118,0
190247,20,218,85,0
190257,15,176,63,0
190267,13,162,54,0
190277,11,164,48,0
190287,14,153,45,0
190297,21,197,54,0
190307,18,192,51,0
190318,14,183,46,0
190328,7,176,40,0
190338,11,137,47,0
190348,11,157,50,0
190358,9,154,41,0
190368,7,135,50,0
190378,14,123,53,0
190388,11,141,43,0
190398,14,194,54,0
190408,16,147,63,0
190418,10,176,61,0
190428,15,176,59,0
190438,10,144,52,0
190448,17,142,52,0
190458,15,152,57,0
190468,8,194,68,0
190478,8,232,84,0
190488,14,166,68,0
190498,11,188,62,0
190508,10,189,58,0
190518,14,206,55,0
190529,10,168,63,0
190539,13,158,56,0
190549,9,173,50,0
190559,8,178,47,0
190569,7,203,39,0
190579,9,173,41,0
190589,14,175,35,0
190599,13,172,40,0
190609,7,161,33,0
190619,8,194,35,0
190629,13,181,50,0
190639,16,190,54,0
190649,6,155,51,0
190659,12,145,48,0
190669,12,203,52,0
190679,5,214,50,0
190689,16,252,49,0
190699,9,206,49,0
190709,14,240,49,0
190719,12,221,59,0
190730,15,207,57,0
190740,7,214,53,0
190750,12,205,60,0
190760,9,194,64,0
190770,12,176,57,0
190780,13,152,53,0
190790,14,118,54,0
190800,9,127,56,0
190810,12,136,57,0
190820,13,166,45,0
190830,8,180,48,0
190840,12,193,57,0
190850,13,172,66,0
190860,9,214,71,0
190870,29,202,85,0
190880,63,179,68,0
190890,56,199,101,0
190900,76,197,89,0
190910,77,226,123,0
190920,57,215,137,0
190930,42,199,103,0
190941,24,189,74,0
190951,23,180,64,0
190961,16,162,47,0
190971,13,172,53,0
190981,16,166,71,0
190991,10,176,61,0
191001,16,176,72,0
191011,8,184,74,0
191021,5,154,89,0
191031,13,144,96,0
191041,8,202,69,0
191051,16,230,71,0
191061,12,204,81,0
191071,15,213,86,0
191081,14,191,75,0
191091,15,215,69,0
191101,8,208,60,0
191111,11,209,52,0
191121,8,197,44,0
191131,9,214,47,0
191141,19,194,50,0
191152,17,211,47,0
191162,24,212,48,0
191172,18,180,58,0
191182,18,187,50,0
191192,10,240,48,0
191202,10,211,46,0
191212,12,234,55,0
191222,12,196,53,0
191232,12,198,59,0
191242,9,191,52,0
191252,7,169,48,0
191262,12,193,43,0
191272,7,148,42,0
191282,8,145,56,0
191292,11,167,43,0
191302,5,146,39,0
191312,5,214,47,0
191322,11,198,47,0
191332,18,185,55,0
191342,13,167,49,0
191352,9,195,45,0
191363,10,176,45,0
191373,7,181,51,0
191383,10,173,51,0
191393,4,188,49,0
191403,9,177,40,802
191413,10,234,48,0
191423,9,246,47,0
191433,9,233,46,0
191443,14,202,60,0
191453,14,202,53,0
191463,6,188,66,0
191473,13,188,60,0
191483,17,164,71,0
191493,4,197,56,0
191503,16,198,50,0
191513,12,203,53,0
191523,25,237,65,0
191533,62,205,71,0
191543,53,208,106,0
191553,79,228,93,0
191563,75,206,170,0
191574,57,204,157,0
191584,34,189,119,0
191594,26,163,85,0
191604,18,166,70,0
191614,13,172,66,0
191624,10,182,57,0
191634,15,181,70,0
191644,18,198,65,0
191654,7,203,62,0
191664,10,231,57,0
191674,8,200,52,0
191684,8,203,53,0
191694,14,219,44,0
191704,7,209,44,0
191714,14,206,68,0
191724,11,186,65,0
191734,12,204,60,0
191744,3,210,54,0
191754,16,193,54,0
191764,4,161,61,0
191774,16,168,63,0
191785,15,170,46,0
191795,11,168,43,0
191805,5,204,47,0
191815,21,154,50,0
191825,17,182,45,0
191835,10,222,42,0
191845,14,229,42,0
191855,18,245,32,0
191865,16,246,38,0
191875,10,236,45,0
191885,10,211,48,0
191895,12,193,38,0
191905,11,203,45,0
191915,13,159,53,0
191925,13,174,50,0
191935,9,185,42,0
191945,15,165,42,0
191955,15,172,44,0
191965,11,192,43,0
191975,9,199,49,0
191985,11,170,65,0
191996,9,160,64,0
192006,16,157,57,0
192016,10,183,56,0
192026,15,207,45,0
192036,19,178,48,0
192046,13,164,39,0
192056,21,139,47,0
192066,19,140,46,0
192076,12,142,53,0
192086,12,160,49,0
192096,13,215,65,0
192106,12,279,54,0
192116,13,216,59,0
192126,9,195,45,0
192136,12,194,46,0
192146,12,156,52,0
192156,16,163,65,0
192166,14,140,70,0
192176,28,141,85,0
192186,50,155,106,0
192197,48,123,102,0
192207,72,169,86,0
192217,71,167,132,0
192227,54,165,145,0
192237,39,164,112,0
192247,23,175,81,0
192257,14,149,69,0
192267,18,108,59,0
192277,10,98,58,0
192287,14,143,71,0
192297,16,139,57,0
192307,17,169,61,0
192317,11,139,57,0
192327,11,176,55,0
192337,6,168,67,0
192347,14,133,62,0
192357,11,135,56,0
192367,8,166,56,0
192377,10,155,45,0
192387,13,214,53,0
192397,5,174,52,0
192408,10,170,69,0
192418,13,158,57,0
192428,19,139,51,0
192438,20,135,52,0
192448,8,148,50,0
192458,22,153,42,0
192468,16,166,41,0
192478,11,151,41,0
192488,10,151,50,0
192498,5,145,50,0
192508,11,134,50,0
192518,11,153,49,0
192528,11,150,51,0
192538,18,165,47,0
192548,12,165,47,0
192558,11,156,41,0
192568,8,132,54,0
192578,13,129,58,0
192588,18,118,53,0
192598,17,123,56,0
192608,13,186,55,0
192619,7,191,49,0
192629,16,209,53,0
192639,7,221,51,0
192649,18,215,50,0
192659,7,242,63,0
192669,8,224,65,0
192679,14,180,83,0
192689,11,250,88,0
192699,10,204,79,0
192709,12,202,72,0
192719,12,158,62,0
192729,10,130,73,0
192739,12,133,70,0
192749,10,137,63,0
192759,14,154,53,0
192769,9,148,52,0
192779,23,152,48,0
192789,23,142,46,0
192799,11,130,58,0
192809,14,165,64,0
192819,10,154,65,0
192830,13,169,57,0
192840,5,183,56,0
192850,14,171,47,0
192860,50,188,45,0
192870,57,179,89,0
192880,67,173,102,0
192890,77,160,140,0
192900,62,164,167,0
192910,49,134,143,0
192920,33,166,104,0
192930,30,164,92,0
192940,21,150,84,0
192950,17,179,78,0
192960,11,197,57,0
192970,15,207,64,0
192980,14,204,60,0
192990,9,193,54,0
193000,12,164,56,0
193010,14,163,55,0
193020,14,144,49,0
193030,14,171,43,0
193041,11,180,43,0
193051,7,180,37,0
193061,4,180,44,0
193071,3,171,40,0
193081,9,172,52,0
193091,17,161,48,0
193101,23,186,47,0
193111,16,173,38,0
193121,8,180,46,0
193131,18,195,56,0
193141,12,178,53,0
193151,20,173,54,0
193161,12,161,46,0
193171,13,174,52,0
193181,12,165,45,0
193191,12,165,47,0
193201,10,176,46,0
193211,16,189,39,0
193221,9,192,29,0
193231,12,163,39,0
193241,12,131,37,0
193252,9,170,34,0
193262,6,159,35,0
193272,8,147,41,0
193282,11,127,42,0
193292,11,133,36,0
193302,9,123,42,0
193312,11,125,42,0
193322,4,155,42,0
193332,12,172,55,0
193342,6,134,54,0
193352,4,148,56,0
193362,16,165,52,0
193372,14,184,44,0
193382,5,164,38,0
193392,15,159,42,0
193402,9,143,38,1001
193412,12,146,42,0
193422,11,183,42,0
193432,13,169,36,0
193442,16,173,34,0
193453,13,170,40,0
193463,15,174,42,0
193473,14,162,44,0
193483,14,132,43,0
193493,5,129,44,0
193503,11,104,37,0
193513,8,118,48,0
193523,7,119,44,0
193533,12,136,37,0
193543,9,118,33,0
193553,6,160,35,0
193563,10,160,45,0
193573,13,179,47,0
193583,23,211,45,0
193593,59,155,63,0
193603,50,125,100,0
193613,84,149,96,0
193623,76,134,136,0
193633,53,117,151,0
193643,39,117,117,0
193653,31,142,86,0
193664,16,124,67,0
193674,16,136,60,0
193684,7,207,50,0
193694,9,173,36,0
193704,10,157,38,0
193714,4,136,45,0
193724,11,99,36,0
193734,12,108,35,0
193744,2,126,38,0
193754,11,188,43,0
193764,6,202,43,0
193774,7,172,38,0
193784,8,156,31,0
193794,13,154,37,0
193804,16,126,40,0
193814,14,114,36,0
193824,9,97,40,0
193834,10,85,33,0
193844,12,97,42,0
193854,18,87,35,0
193864,17,129,45,0
193875,13,157,41,0
193885,5,192,37,0
193895,10,151,42,0
193905,9,116,35,0
193915,8,120,36,0
193925,9,120,39,0
193935,10,131,40,0
193945,9,117,40,0
193955,15,153,46,0
193965,9,141,45,0
193975,15,124,35,0
193985,14,120,34,0
193995,13,113,34,0
194005,3,121,46,0
194015,12,110,34,0
194025,11,106,35,0
194035,15,107,30,0
194045,9,77,33,0
194055,11,63,37,0
194065,14,72,44,0
194075,18,61,45,0
194086,7,70,45,0
194096,14,74,39,0
194106,6,65,45,0
194116,10,97,41,0
194126,8,109,37,0
194136,10,201,37,0
194146,16,172,33,0
194156,14,132,38,0
194166,12,107,39,0
194176,12,83,44,0
194186,10,84,36,0
194196,12,76,52,0
194206,4,81,50,0
194216,12,96,46,0
194226,13,110,45,0
194236,12,125,40,0
194246,10,134,42,0
194256,13,122,52,0
194266,11,122,56,0
194276,11,114,51,0
194286,10,98,43,0
194297,25,96,36,0
194307,58,115,66,0
194317,51,107,111,0
194327,85,123,104,0
194337,77,114,157,0
194347,53,119,147,0
194357,32,98,111,0
194367,24,92,83,0
194377,26,76,63,0
194387,17,70,51,0
194397,21,65,50,0
194407,14,93,42,0
194417,9,87,40,0
194427,15,79,34,0
194437,18,74,32,0
194447,17,55,34,0
194457,17,49,36,0
194467,10,74,32,0
194477,11,95,33,0
194487,15,81,30,0
194497,8,119,31,0
194508,10,119,33,0
194518,11,123,43,0
194528,15,95,45,0
194538,10,74,39,0
194548,12,79,38,0
194558,9,80,32,0
194568,19,84,34,0
194578,7,90,37,0
194588,13,94,42,0
194598,10,91,41,0
194608,16,105,40,0
194618,17,120,40,0
194628,12,108,42,0
194638,17,133,39,0
194648,11,133,42,0
194658,15,107,32,0
194668,15,86,36,0
194678,7,131,38,0
194688,4,114,34,0
194698,8,93,42,0
194708,5,76,33,0
194719,12,61,36,0
194729,8,74,45,0
194739,8,72,39,0
194749,8,73,39,0
194759,11,75,41,0
194769,10,78,42,0
194779,7,70,39,0
194789,4,57,36,0
194799,9,61,38,0
194809,2,57,36,0
194819,9,64,35,0
194829,12,59,34,0
194839,7,76,35,0
194849,11,78,42,0
194859,13,67,39,0
194869,15,61,34,0
194879,6,52,31,0
194889,9,64,34,0
194899,12,62,43,0
194909,8,65,43,0
194919,6,85,42,0
194930,8,67,30,0
194940,10,61,43,0
194950,11,67,41,0
194960,14,93,48,0
194970,9,112,41,0
194980,7,97,35,0
194990,8,90,38,0
195000,9,78,37,0
195010,7,68,42,0
195020,22,51,38,0
195030,61,51,48,0
195040,60,56,89,0
195050,81,68,85,0
195060,86,102,103,0
195070,68,96,117,0
195080,46,77,100,0
195090,29,83,70,0
195100,26,90,58,0
195110,16,71,48,0
195120,12,72,47,0
195130,15,54,49,0
195141,13,60,46,0
195151,13,53,40,0
195161,11,64,47,0
195171,11,59,43,0
195181,13,74,45,0
195191,8,91,42,0
195201,13,88,49,0
195211,9,76,36,0
195221,10,87,45,1000
195231,5,70,42,600
195241,10,81,46,0
195251,11,74,45,0
195261,10,58,33,0
195271,18,53,36,0
195281,11,58,31,0
195291,13,56,35,0
195301,14,54,33,0
195311,8,59,37,0
195321,18,56,42,0
195331,13,53,38,0
195341,14,53,41,0
195352,11,51,36,0
195362,7,52,37,0
195372,3,56,35,0
195382,12,49,35,0
195392,8,42,31,0
195402,5,48,41,0
195412,8,48,37,0
195422,3,54,29,0
195432,14,55,41,0
195442,14,58,37,0
195452,12,64,48,0
195462,16,62,45,0
195472,6,47,37,0
195482,13,55,40,0
195492,6,52,46,0
195502,13,58,37,0
195512,12,60,41,0
195522,10,65,35,0
195532,10,71,35,0
195542,17,86,35,0
195552,14,87,30,0
195563,13,92,32,0
195573,18,90,36,0
195583,9,69,36,0
195593,5,57,35,0
195603,10,66,27,0
195613,10,59,37,0
195623,10,86,32,0
195633,14,77,27,0
195643,8,93,37,0
195653,13,65,31,0
195663,8,71,36,0
195673,14,127,35,0
195683,5,134,35,0
195693,8,139,32,0
195703,12,144,34,0
195713,7,133,40,0
195723,8,113,44,0
195733,12,91,34,0
195743,16,87,35,0
195753,15,87,37,0
195764,6,78,31,0
195774,9,74,29,0
195784,17,80,41,0
195794,14,66,42,0
195804,16,101,45,0
195814,58,77,60,0
195824,55,72,92,0
195834,75,95,89,0
195844,86,123,103,0
195854,70,109,119,0
195864,47,131,93,0
195874,35,102,70,0
195884,25,77,50,0
195894,21,60,49,0
195904,23,49,49,0
195914,15,57,45,0
195924,7,56,49,0
195934,14,61,48,0
195944,13,57,36,0
195954,16,58,38,0
195964,11,50,42,0
195975,11,47,42,0
195985,14,64,46,0
195995,14,68,45,0
196005,17,77,45,0
196015,10,83,38,0
196025,7,68,35,0
196035,17,70,32,0
196045,7,87,30,0
196055,14,88,29,0
196065,14,111,32,0
196075,11,145,37,0
196085,14,126,38,0
196095,13,131,28,0
196105,17,125,39,0
196115,16,117,37,0
196125,4,102,32,0
196135,4,92,38,0
196145,3,81,36,0
196155,7,63,40,0
196165,5,60,35,0
196175,11,49,36,0
196186,15,56,42,0
196196,2,53,45,0
196206,7,49,51,0
196216,14,51,52,0
196226,6,50,78,0
196236,7,52,73,0
196246,14,57,68,0
196256,13,55,72,0
196266,5,47,61,0
196276,11,49,64,0
196286,13,59,60,0
196296,10,47,48,0
196306,12,40,48,0
196316,6,48,40,0
196326,7,59,44,0
196336,5,64,38,0
196346,14,65,46,0
196356,10,67,42,0
196366,7,60,33,0
196376,3,58,35,0
196386,7,50,47,0
196397,16,46,42,0
196407,7,72,39,0
196417,7,79,27,0
196427,9,104,43,0
196437,5,105,53,0
196447,7,85,61,0
196457,9,69,53,0
196467,6,75,44,0
196477,5,85,56,0
196487,5,95,48,0
196497,5,101,55,0
196507,12,88,45,0
196517,14,94,40,0
196527,7,81,35,0
196537,9,82,40,0
196547,15,72,41,0
196557,12,75,47,0
196567,6,65,41,0
196577,9,51,32,0
196587,12,57,39,0
196597,12,50,35,0
196608,44,60,54,0
196618,63,109,63,0
196628,59,104,90,0
196638,82,76,82,0
196648,69,81,143,0
196658,52,67,143,0
196668,29,76,102,0
196678,19,64,77,0
196688,16,83,70,0
196698,14,78,58,0
196708,16,70,48,0
196718,16,66,43,0
196728,17,105,39,601
196738,19,107,48,0
196748,10,162,54,0
196758,9,120,48,0
196768,17,97,39,0
196778,15,77,48,0
196788,3,65,43,0
196798,9,61,38,0
196808,14,87,39,0
196819,13,89,31,0
196829,6,72,37,0
196839,12,94,45,0
196849,11,103,39,0
196859,7,92,41,0
196869,13,84,32,0
196879,21,132,39,0
196889,13,136,41,0
196899,17,119,37,0
196909,14,121,36,0
196919,8,151,36,0
196929,7,170,36,0
196939,11,168,37,0
196949,9,244,39,0
196959,12,222,40,0
196969,4,240,45,0
196979,4,190,40,0
196989,15,168,43,0
196999,14,158,35,0
197009,13,130,44,0
197019,12,176,40,0
197030,8,198,32,0
197040,6,229,35,0
197050,11,200,44,0
197060,10,206,39,0
197070,10,238,39,0
197080,10,209,47,0
197090,12,178,37,0
197100,10,129,38,0
197110,11,113,38,0
197120,10,96,34,0
197130,17,82,53,0
197140,12,104,43,0
197150,13,98,51,0
197160,14,79,40,0
197170,14,87,44,0
197180,7,75,64,0
197190,8,85,67,0
197200,13,87,65,0
197210,10,79,53,0
197220,8,83,52,0
197230,13,87,51,0
197241,8,96,47,0
197251,15,102,51,0
197261,15,109,42,0
197271,11,121,35,0
197281,11,124,35,0
197291,15,108,31,0
197301,7,160,33,0
197311,4,133,41,0
197321,13,169,42,0
197331,13,187,48,0
197341,12,176,53,0
197351,38,202,65,0
197361,66,201,82,0
197371,52,214,111,0
197381,82,217,98,0
197391,79,199,148,0
197401,59,156,139,0
197411,35,165,111,0
197421,30,167,73,0
197431,21,188,72,0
197441,20,165,63,0
197452,16,139,57,0
197462,11,176,39,0
197472,22,148,36,0
197482,22,138,38,0
197492,13,121,38,0
197502,17,116,43,0
197512,13,118,43,0
197522,17,158,51,0
197532,15,148,48,0
197542,12,137,51,0
197552,19,131,42,0
197562,8,107,42,0
197572,9,102,34,0
197582,9,104,29,0
197592,16,88,36,0
197602,14,103,32,0
197612,18,135,39,0
197622,22,109,42,0
197632,18,108,47,0
197642,13,102,46,0
197652,13,166,43,0
197663,14,141,47,0
197673,10,140,40,0
197683,10,161,49,0
197693,8,149,48,0
197703,4,141,40,0
197713,12,135,45,0
197723,14,109,42,0
197733,8,98,39,0
197743,14,91,33,0
197753,9,95,40,0
197763,13,121,43,0
197773,13,129,43,0
197783,15,137,42,0
197793,17,132,45,0
197803,9,106,45,0
197813,14,102,51,0
197823,15,111,52,0
197833,13,98,47,0
197843,7,97,44,0
197853,16,117,46,0
197863,19,119,48,0
197874,11,116,59,0
197884,18,124,54,0
197894,8,116,46,0
197904,20,146,66,0
197914,13,169,55,0
197924,4,139,54,0
197934,8,120,50,0
197944,19,111,46,0
197954,17,134,55,0
197964,17,153,66,0
197974,12,118,56,0
197984,5,109,48,0
197994,12,92,55,0
198004,16,88,49,0
198014,16,100,45,0
198024,15,115,45,0
198034,12,129,51,0
198044,6,200,49,0
198054,9,168,40,0
198064,9,147,56,0
198075,10,162,64,0
198085,12,178,66,0
198095,14,160,61,0
198105,17,160,52,0
198115,19,153,47,0
198125,53,190,67,0
198135,59,152,98,0
198145,64,118,108,0
198155,81,138,104,0
198165,83,149,148,0
198175,66,110,155,0
198185,43,93,123,0
198195,35,94,99,0
198205,20,97,87,0
198215,23,103,87,0
198225,12,106,74,0
198235,8,100,64,0
198245,21,97,69,0
198255,13,92,54,0
198265,10,113,44,0
198275,18,114,48,0
198286,12,125,47,0
198296,15,121,41,0
198306,12,137,47,0
198316,15,126,39,0
198326,23,122,52,0
198336,21,136,53,0
198346,13,118,61,0
198356,16,132,55,0
198366,22,132,63,0
198376,33,125,56,0
198386,20,132,47,0
198396,21,131,53,0
198406,24,123,54,0
198416,28,121,53,0
198426,13,106,47,0
198436,17,108,44,0
198446,11,123,47,0
198456,10,138,43,0
198466,23,145,42,0
198476,19,114,52,0
198486,19,129,54,0
198497,9,102,54,0
198507,15,116,52,0
198517,10,116,43,0
198527,15,107,43,0
198537,23,169,40,0
198547,15,169,49,0
198557,13,174,51,0
198567,14,139,61,0
198577,18,110,57,0
198587,21,96,50,0
198597,14,107,58,0
198607,16,120,66,0
198617,16,138,67,0
198627,17,123,88,0
198637,18,105,73,0
198647,24,140,66,0
198657,21,122,58,0
198667,30,130,55,0
198677,31,184,49,0
198687,27,169,53,0
198697,22,200,62,0
198708,31,156,61,0
198718,21,130,71,0
198728,20,98,78,0
198738,19,91,58,0
198748,34,201,65,0
198758,32,194,57,0
198768,35,215,64,0
198778,25,196,63,0
198788,23,152,63,0
198798,24,146,55,0
198808,29,166,60,0
198818,25,159,67,0
198828,36,170,64,0
198838,31,149,62,0
198848,30,148,75,0
198858,44,131,88,0
198868,65,129,106,0
198878,44,164,121,0
198888,59,202,128,0
198898,62,148,169,0
198908,57,119,142,0
198919,40,134,107,0
198929,42,116,95,0
198939,27,140,90,0
198949,23,144,73,0
198959,20,191,67,0
198969,22,197,57,0
198979,21,162,55,0
198989,19,156,57,0
198999,31,168,51,0
199009,32,154,55,0
199019,28,156,49,0
199029,40,207,50,0
199039,46,205,54,0
199049,37,219,56,0
199059,37,233,63,0
199069,22,214,62,0
199079,21,190,59,0
199089,20,167,60,0
199099,19,187,51,0
199109,35,145,54,0
199119,29,114,64,0
199130,33,118,55,0
199140,29,125,74,0
199150,38,209,73,0
199160,20,194,65,0
199170,27,215,64,0
199180,27,197,68,0
199190,23,236,61,0
199200,22,205,60,0
199210,32,192,53,0
199220,30,171,59,0
199230,33,171,49,0
199240,27,167,55,0
199250,30,152,57,0
199260,20,151,70,0
199270,28,233,65,0
199280,21,228,71,0
199290,15,179,53,0
199300,20,147,55,0
199310,24,235,61,0
199320,31,216,75,0
199331,23,312,66,0
199341,23,253,58,0
199351,22,257,48,0
199361,21,279,50,0
199371,17,224,44,0
199381,26,196,43,0
199391,16,183,50,0
199401,20,166,59,0
199411,30,180,70,0
199421,22,163,63,0
199431,27,173,55,0
199441,20,179,41,0
199451,25,148,53,0
199461,28,117,49,0
199471,29,149,59,0
199481,28,163,57,0
199491,28,126,47,0
199501,22,120,43,0
199511,28,126,48,0
199521,22,118,54,0
199531,15,125,63,0
199542,19,114,66,0
199552,12,130,68,0
199562,19,99,73,0
199572,41,112,88,0
199582,48,121,128,0
199592,50,156,109,0
199602,77,137,165,0
199612,67,122,161,0
199622,45,223,119,0
199632,37,190,95,0
199642,28,231,76,0
199652,17,197,75,0
199662,16,205,66,0
199672,14,152,63,0
199682,12,137,57,0
199692,23,120,69,0
199702,16,119,61,0
199712,16,126,68,0
199722,17,109,58,0
199732,19,127,59,602
199742,22,109,51,0
199753,12,139,59,0
199763,14,130,56,0
199773,15,121,46,0
199783,19,128,41,0
199793,10,107,41,0
199803,22,134,40,0
199813,17,141,42,0
199823,23,173,48,0
199833,17,131,43,0
199843,29,116,45,0
199853,33,102,46,0
199863,32,100,45,0
199873,33,102,41,0
199883,27,109,48,0
199893,24,117,57,0
199903,29,95,60,0
199913,22,90,54,0
199923,14,94,61,0
199933,16,84,64,0
199943,20,97,47,0
199953,21,110,50,0
199964,22,110,56,0
199974,24,139,53,0
199984,20,131,49,0
199994,23,125,55,0
200004,15,122,60,0
200014,15,112,54,0
200024,15,107,47,0
200034,8,98,48,0
200044,18,88,50,0
200054,11,107,53,0
200064,10,125,48,0
200074,9,169,54,0
200084,10,124,46,0
200094,21,157,64,0
200104,18,170,73,0
200114,18,184,63,0
200124,13,180,55,0
200134,15,169,74,0
200144,12,178,72,0
200154,17,155,77,0
200164,17,139,66,0
200175,6,188,62,0
200185,17,215,52,0
200195,9,216,68,0
200205,12,199,59,0
200215,21,155,57,0
200225,16,156,56,0
200235,51,140,66,0
200245,49,135,115,0
200255,55,164,98,0
200265,57,130,129,0
200275,61,108,126,0
200285,45,96,103,0
200295,32,94,82,0
200305,31,128,80,0
200315,27,114,62,0
200325,19,115,65,0
200335,15,92,55,0
200345,13,83,53,0
200355,9,72,52,0
200365,19,97,63,0
200376,13,105,57,0
200386,13,142,55,0
200396,8,156,56,0
200406,13,142,60,0
200416,12,143,61,0
200426,12,144,56,0
200436,10,125,56,0
200446,14,156,56,0
200456,7,155,60,0
200466,15,165,54,0
200476,29,139,43,0
200486,27,128,48,0
200496,25,106,50,0
200506,25,96,41,0
200516,33,99,49,0
200526,18,90,46,0
200536,13,118,53,0
200546,13,104,46,0
200556,18,116,41,0
200566,13,160,47,0
200576,10,131,39,0
200587,13,116,70,0
200597,9,120,90,0
200607,6,127,117,0
200617,11,103,108,0
200627,15,100,86,0
200637,14,130,67,0
200647,9,126,52,0
200657,7,125,64,0
200667,6,144,54,0
200677,2,154,56,0
200687,7,124,46,0
200697,3,128,58,0
200707,5,111,50,0
200717,11,100,53,0
200727,12,100,48,0
200737,17,124,51,0
200747,12,118,53,0
200757,17,106,65,0
200767,17,107,60,0
200777,5,122,51,0
200787,10,121,47,0
200798,7,109,50,0
200808,3,89,48,0
200818,15,101,46,0
200828,14,140,41,0
200838,15,118,52,0
200848,19,169,69,0
200858,16,143,62,0
200868,29,144,67,0
200878,64,134,61,0
200888,51,161,97,0
200898,72,233,99,0
200908,81,216,131,0
200918,68,257,163,0
200928,44,205,133,0
200938,28,203,105,0
200948,19,176,74,0
200958,17,158,60,0
200968,9,210,52,0
200978,16,185,58,0
200988,5,198,56,0
200998,7,231,72,0
201009,9,182,62,0
201019,12,132,49,0
201029,13,136,55,0
201039,19,165,51,0
201049,30,127,51,0
201059,29,138,46,0
201069,20,115,46,0
201079,20,105,49,0
201089,23,82,46,0
201099,20,76,47,0
201109,20,143,47,0
201119,20,146,34,0
201129,23,138,42,0
201139,24,151,45,0
201149,23,123,42,0
201159,24,150,44,0
201169,22,132,43,0
201179,14,109,36,0
201189,14,117,33,0
201199,15,158,44,0
201209,18,161,61,0
201220,11,212,50,0
201230,16,189,48,0
201240,9,209,36,0
201250,14,187,40,0
201260,10,146,41,0
201270,10,130,33,0
201280,16,147,34,0
201290,16,154,31,0
201300,5,207,42,0
201310,7,169,37,0
201320,8,148,44,0
201330,8,125,49,0
201340,15,123,45,0
201350,9,125,45,0
201360,3,122,50,0
201370,12,111,54,0
201380,15,135,46,0
201390,8,158,46,0
201400,11,157,53,0
201410,9,155,46,0
201420,6,156,39,0
201431,9,213,39,0
201441,3,184,48,0
201451,12,184,48,0
201461,15,129,48,0
201471,8,140,53,0
201481,11,153,56,0
201491,10,150,49,0
201501,10,134,40,0
201511,19,120,46,0
201521,20,107,41,0
201531,69,101,73,0
201541,62,90,93,0
201551,71,102,82,0
201561,84,92,128,0
201571,59,78,158,0
201581,43,76,138,0
201591,34,73,96,0
201601,23,69,76,0
201611,22,54,56,0
201621,18,58,56,0
201632,11,101,49,0
201642,11,168,55,0
201652,14,143,54,0
201662,7,171,51,0
201672,14,164,48,0
201682,7,121,45,0
201692,10,138,37,0
201702,13,127,43,0
201712,13,142,43,0
201722,11,114,44,0
201732,8,96,34,1001
201742,7,89,29,0
201752,9,84,43,0
201762,14,83,44,0
201772,16,98,46,0
201782,8,100,38,0
201792,14,119,39,0
201802,19,89,32,0
201812,15,99,37,0
201822,12,118,37,0
201832,16,125,42,0
201843,8,90,35,0
201853,2,85,30,0
201863,8,96,32,0
201873,4,105,31,0
201883,8,104,35,0
201893,13,107,38,0
201903,18,102,48,0
201913,8,106,41,0
201923,10,79,40,0
201933,9,69,40,0
201943,9,49,35,0
201953,11,47,34,0
201963,16,44,37,0
201973,5,69,44,0
201983,7,61,36,0
201993,12,44,45,0
202003,11,77,42,0
202013,7,80,35,0
202023,12,71,44,0
202033,16,55,35,0
202043,9,78,37,0
202054,10,65,37,0
202064,11,67,40,0
202074,14,85,36,0
202084,12,100,44,0
202094,4,90,46,0
202104,10,94,43,0
202114,9,106,42,0
202124,9,135,38,0
202134,9,153,39,0
202144,7,155,44,0
202154,10,134,48,0
202164,8,107,69,0
202174,3,92,60,0
202184,17,71,55,0
202194,17,61,61,0
202204,15,62,58,0
202214,54,73,62,0
202224,55,64,69,0
202234,77,52,70,0
202244,84,44,75,0
202254,60,63,96,0
202265,47,71,94,0
202275,34,69,71,0
202285,25,70,61,0
202295,20,59,45,0
202305,9,52,41,0
202315,5,54,37,0
202325,9,39,38,0
202335,5,40,52,0
202345,14,49,50,0
202355,14,47,42,0
202365,16,39,43,0
202375,8,45,39,0
202385,14,40,34,0
202395,8,42,33,0
202405,8,54,35,0
202415,3,54,43,0
202425,7,54,40,0
202435,11,60,44,0
202445,15,74,59,0
202455,6,77,66,0
202465,18,65,54,0
202476,18,81,42,0
202486,18,102,45,0
202496,9,96,53,0
202506,11,98,48,0
202516,8,71,44,0
202526,16,92,47,0
202536,12,87,44,0
202546,13,89,40,0
202556,13,76,41,0
202566,11,71,34,0
202576,20,69,34,0
202586,10,66,33,0
202596,12,63,44,0
202606,13,63,39,0
202616,10,67,37,0
202626,9,67,41,0
202636,11,66,37,0
202646,17,54,43,0
202656,12,62,43,0
202666,14,66,46,0
202676,9,71,41,0
202687,11,78,39,0
202697,15,75,37,0
202707,17,63,38,0
202717,14,54,42,0
202727,15,43,46,0
202737,12,50,51,0
202747,1,50,42,0
202757,15,51,35,0
202767,14,65,53,0
202777,12,61,59,0
202787,13,53,41,0
202797,8,56,44,0
202807,8,43,38,0
202817,9,50,42,0
202827,12,57,42,0
202837,5,49,40,0
202847,14,51,37,0
202857,7,56,33,0
202867,11,47,36,0
202877,9,61,39,0
202887,14,64,43,0
202898,55,60,49,0
202908,59,61,80,0
202918,70,69,83,0
202928,85,66,99,0
202938,61,67,131,0
202948,36,75,114,0
202958,27,72,75,0
202968,27,75,80,0
202978,17,69,64,0
202988,23,56,57,0
202998,22,58,53,0
203008,14,59,47,0
203018,22,50,52,0
203028,12,48,49,0
203038,16,52,49,0
203048,12,76,39,0
203058,9,87,38,0
203068,15,76,32,0
203078,12,69,32,0
203088,6,50,41,0
203098,9,57,37,0
203109,14,48,46,0
203119,11,56,36,0
203129,10,51,35,0
203139,7,44,30,0
203149,11,60,26,0
203159,8,61,23,0
203169,17,64,34,0
203179,8,59,26,0
203189,15,57,29,0
203199,8,44,33,0
203209,16,49,36,0
203219,13,47,38,0
203229,13,53,36,0
203239,8,63,30,0
203249,12,63,32,0
203259,12,53,36,0
203269,8,48,34,0
203279,7,44,29,0
203289,3,43,25,0
203299,14,66,32,0
203309,16,53,32,0
203320,11,72,35,0
203330,4,65,33,0
203340,6,56,37,0
203350,7,46,33,0
203360,6,60,37,0
203370,12,62,43,0
203380,9,54,37,0
203390,7,54,41,0
203400,7,50,38,0
203410,16,74,41,0
203420,10,91,40,700
203430,8,80,49,0
203440,17,63,44,0
203450,13,61,49,0
203460,7,63,53,0
203470,10,62,53,0
203480,14,59,43,0
203490,6,64,47,0
203500,7,68,36,0
203510,9,59,42,0
203520,9,69,42,0
203531,13,70,44,0
203541,7,81,35,0
203551,3,71,36,0
203561,9,75,40,0
203571,10,83,49,0
203581,16,89,42,0
203591,53,79,59,0
203601,62,69,99,0
203611,82,71,96,0
203621,86,75,113,0
203631,68,63,130,0
203641,43,58,103,0
203651,32,63,83,0
203661,28,50,58,0
203671,20,50,51,0
203681,11,55,49,0
203691,13,54,47,0
203701,13,58,44,0
203711,10,60,35,0
203721,12,60,40,0
203731,11,57,38,0
203742,14,58,41,0
203752,14,49,31,0
203762,15,47,41,0
203772,15,48,42,0
203782,7,44,40,0
203792,11,42,44,0
203802,9,39,39,0
203812,8,41,36,0
203822,10,44,47,0
203832,16,38,39,0
203842,21,42,40,0
203852,20,42,39,0
203862,20,51,39,0
203872,12,52,32,0
203882,11,66,33,0
203892,19,70,31,0
203902,11,59,28,0
203912,9,55,36,0
203922,15,52,41,0
203932,9,52,43,0
203942,16,43,40,0
203953,12,50,39,0
203963,14,42,38,0
203973,13,53,35,0
203983,14,51,42,0
203993,6,52,32,0
204003,9,51,32,0
204013,7,46,35,0
204023,11,41,36,0
204033,4,35,34,0
204043,8,49,32,0
204053,8,68,40,0
204063,8,63,35,0
204073,9,65,46,0
204083,6,61,43,0
204093,6,56,41,0
204103,11,61,41,0
204113,5,56,37,0
204123,7,51,44,0
204133,9,52,38,0
204143,8,42,33,0
204153,13,65,37,0
204164,11,66,37,0
204174,7,50,34,0
204184,9,45,35,0
204194,10,52,37,0
204204,12,49,54,0
204214,8,71,43,0
204224,8,73,49,0
204234,12,70,33,0
204244,14,61,40,0
204254,13,57,45,0
204264,13,73,41,0
204274,22,80,42,0
204284,18,66,33,0
204294,16,64,48,0
204304,11,59,34,0
204314,13,57,44,0
204324,18,51,44,0
204334,56,62,63,0
204344,54,77,91,0
204354,69,71,85,0
204364,85,74,108,0
204375,73,72,137,0
204385,52,58,116,0
204395,30,58,84,0
204405,16,56,62,0
204415,11,63,56,0
204425,10,79,53,0
204435,16,68,45,0
204445,15,71,41,0
204455,8,60,36,0
204465,9,59,44,0
204475,3,66,39,0
204485,13,59,37,0
204495,16,66,32,0
204505,8,61,38,0
204515,9,87,38,0
204525,4,75,31,0
204535,15,92,37,0
204545,19,76,37,0
204555,9,66,27,0
204565,9,58,31,0
204576,13,62,31,0
204586,13,90,35,0
204596,13,85,38,0
204606,17,78,38,0
204616,16,69,41,0
204626,19,69,36,0
204636,13,84,35,0
204646,8,70,35,0
204656,11,85,32,0
204666,8,69,39,0
204676,14,61,59,0
204686,13,63,49,0
204696,5,84,46,0
204706,4,158,35,0
204716,9,211,40,0
204726,10,241,37,0
204736,9,206,40,0
204746,10,149,45,0
204756,8,138,35,0
204766,10,117,43,0
204776,8,94,39,0
204787,13,76,37,0
204797,9,81,35,0
204807,5,79,46,0
204817,13,71,48,0
204827,14,61,42,0
204837,10,61,46,0
204847,15,66,40,0
204857,2,65,27,0
204867,2,96,32,0
204877,10,92,37,0
204887,13,92,39,0
204897,15,76,30,0
204907,9,68,32,0
204917,8,59,36,0
204927,9,71,50,701
204937,14,77,44,0
204947,16,87,45,0
204957,6,73,44,0
204967,12,67,51,0
204977,12,65,39,0
204987,9,76,41,0
204998,8,64,40,0
205008,8,78,45,0
205018,16,70,46,0
205028,16,61,53,0
205038,6,53,42,0
205048,13,79,46,0
205058,13,77,62,0
205068,14,65,56,0
205078,13,78,56,0
205088,49,66,74,0
205098,57,70,85,0
205108,68,72,99,0
205118,82,63,115,0
205128,78,60,160,0
205138,53,110,142,0
205148,36,130,105,0
205158,25,93,76,0
205168,17,97,61,0
205178,14,96,51,0
205188,15,86,51,0
205198,15,124,49,0
205209,11,203,44,0
205219,9,190,42,0
205229,13,231,40,0
205239,17,171,42,0
205249,11,171,50,0
205259,13,168,48,0
205269,11,136,44,0
205279,12,168,48,0
205289,12,154,49,0
205299,9,166,46,0
205309,14,152,46,0
205319,6,203,38,0
205329,8,219,43,0
205339,4,169,40,0
205349,14,144,45,0
205359,18,166,53,0
205369,14,141,45,0
205379,16,181,46,0
205389,10,151,40,0
205399,16,201,46,0
205409,17,176,42,0
205420,11,205,47,0
205430,9,201,50,0
205440,8,196,49,0
205450,13,258,67,0
205460,9,216,56,0
205470,12,211,56,0
205480,12,181,58,0
205490,15,260,50,0
205500,10,229,46,0
205510,11,268,42,0
205520,6,245,39,0
205530,7,280,44,0
205540,11,241,39,0
205550,11,305,45,0
205560,9,256,45,0
205570,7,213,43,0
205580,8,205,41,0
205590,17,278,45,0
205600,12,300,38,0
205610,7,311,48,0
205620,8,337,56,0
205631,16,306,45,0
205641,9,291,40,0
205651,5,249,39,0
205661,7,228,41,0
205671,15,219,41,0
205681,13,219,43,0
205691,7,244,44,0
205701,7,245,62,0
205711,12,262,55,0
205721,7,248,51,0
205731,5,234,44,0
205741,16,190,50,0
205751,8,183,48,0
205761,4,232,36,0
205771,11,278,45,0
205781,7,278,51,0
205791,12,292,47,0
205801,7,317,70,0
205811,10,260,62,0
205821,39,283,74,0
205831,59,261,93,0
205842,53,220,119,0
205852,82,181,118,0
205862,73,238,167,0
205872,46,229,143,0
205882,40,192,106,0
205892,26,227,81,0
205902,20,212,72,0
205912,13,178,65,0
205922,15,221,55,0
205932,8,182,46,0
205942,14,231,44,0
205952,11,215,42,0
205962,18,214,47,0
205972,22,201,49,0
205982,19,207,47,0
205992,17,232,47,0
206002,24,206,54,0
206012,28,168,52,0
206022,20,171,53,0
206032,16,157,49,0
206042,15,139,48,0
206053,21,179,46,0
206063,15,167,44,0
206073,20,197,37,0
206083,22,174,43,0
206093,24,193,37,0
206103,21,167,42,0
206113,10,159,31,0
206123,19,156,41,0
206133,9,195,49,0
206143,8,189,50,0
206153,14,167,38,0
206163,10,162,45,0
206173,16,170,52,0
206183,20,148,53,0
206193,9,139,61,0
206203,13,134,53,0
206213,9,132,54,0
206223,10,134,48,0
206233,17,158,54,0
206243,16,159,58,0
206254,16,200,50,0
206264,14,231,46,0
206274,5,209,47,0
206284,4,185,60,0
206294,7,201,53,0
206304,8,167,53,0
206314,6,158,51,0
206324,12,135,46,0
206334,6,130,56,0
206344,4,168,53,0
206354,12,175,58,0
206364,9,167,52,0
206374,15,181,46,0
206384,11,138,40,0
206394,8,154,39,0
206404,19,165,36,0
206414,10,167,41,0
206424,10,190,54,0
206434,7,205,53,0
206444,12,195,47,0
206454,11,211,57,0
206465,12,185,57,0
206475,10,195,59,0
206485,12,191,58,0
206495,10,178,58,0
206505,6,159,48,0
206515,10,161,53,0
206525,4,155,57,0
206535,11,156,44,0
206545,17,170,47,0
206555,30,215,57,0
206565,50,186,62,0
206575,50,241,87,0
206585,84,245,91,0
206595,71,230,132,0
206605,51,284,116,0
206615,39,230,87,0
206625,23,225,73,0
206635,19,234,61,0
206645,10,241,45,0
206655,10,215,46,0
206665,16,204,42,0
206676,15,189,49,0
206686,20,168,53,0
206696,13,153,45,0
206706,12,179,49,0
206716,7,175,41,0
206726,6,174,41,0
206736,12,190,45,0
206746,5,202,42,0
206756,13,225,43,0
206766,15,247,50,0
206776,11,260,43,0
206786,13,250,51,0
206796,9,245,45,0
206806,11,217,52,0
206816,20,185,51,0
206826,11,174,53,0
206836,9,171,56,0
206846,14,174,74,0
206856,9,180,62,0
206866,16,221,74,0
206876,12,213,62,0
206887,11,245,58,0
206897,12,217,56,0
206907,14,234,60,0
206917,12,235,44,0
206927,11,238,44,0
206937,13,258,47,0
206947,13,223,41,0
206957,7,200,42,0
206967,14,169,50,0
206977,6,172,45,0
206987,10,184,37,0
206997,13,197,37,0
207007,11,194,44,0
207017,8,176,42,0
207027,11,176,45,0
207037,8,244,45,0
207047,9,216,37,0
207057,7,232,62,0
207067,8,212,83,0
207077,7,224,73,0
207087,8,208,95,0
207098,17,216,101,0
207108,16,199,87,0
207118,12,201,68,0
207128,4,209,73,0
207138,4,183,62,0
207148,11,204,57,0
207158,6,174,43,0
207168,9,183,48,0
207178,14,218,48,0
207188,12,226,53,0
207198,9,184,54,0
207208,9,194,53,0
207218,14,220,53,0
207228,8,173,62,0
207238,5,233,70,0
207248,8,229,56,0
207258,11,178,52,0
207268,47,215,53,0
207278,46,177,66,0
207288,64,189,98,0
207298,79,243,121,0
207309,54,232,148,0
207319,33,285,111,0
207329,24,299,85,0
207339,19,297,66,0
207349,12,277,62,0
207359,12,208,51,0
207369,10,187,42,0
207379,6,212,40,0
207389,12,186,46,0
207399,14,222,46,0
207409,9,217,57,0
207419,11,232,64,0
207429,14,206,56,0
207439,10,186,48,0
207449,14,209,49,0
207459,10,188,54,0
207469,14,159,57,0
207479,15,191,48,0
207489,9,186,46,0
207499,15,183,46,0
207510,14,183,41,0
207520,16,187,42,0
207530,21,190,42,0
207540,12,176,45,0
207550,19,161,44,0
207560,11,170,53,0
207570,13,209,41,0
207580,10,182,49,0
207590,6,205,46,0
207600,16,235,54,0
207610,11,282,57,0
207620,14,196,59,0
207630,5,214,57,0
207640,10,178,50,0
207650,8,224,54,0
207660,9,225,71,0
207670,19,197,63,0
207680,10,241,77,0
207690,18,207,63,0
207700,12,234,51,0
207710,8,226,56,0
207721,17,207,53,0
207731,11,263,48,0
207741,10,279,50,0
207751,12,215,43,0
207761,8,224,38,0
207771,18,245,40,0
207781,7,216,51,0
207791,17,261,45,0
207801,7,218,45,0
207811,19,183,59,0
207821,14,172,52,0
207831,5,172,50,0
207841,11,152,53,0
207851,8,191,50,0
207861,5,231,46,0
207871,17,203,51,0
207881,7,199,51,0
207891,18,205,49,0
207901,13,181,58,0
207911,16,197,59,0
207921,6,210,72,702
207932,15,181,73,0
207942,10,215,65,0
207952,11,221,56,0
207962,13,308,47,0
207972,14,284,51,0
207982,16,224,50,0
207992,34,221,72,0
208002,60,221,75,0
208012,53,189,71,0
208022,78,188,94,0
208032,60,207,137,0
208042,38,237,117,0
208052,30,236,83,0
208062,26,221,68,0
208072,19,181,55,0
208082,20,179,53,0
208092,11,206,44,0
208102,9,213,41,0
208112,14,191,44,0
208122,12,200,62,0
208132,15,156,56,0
208143,8,139,54,0
208153,14,198,55,0
208163,9,196,58,0
208173,8,239,56,0
208183,6,240,55,0
208193,8,223,54,0
208203,5,225,60,0
208213,16,214,60,0
208223,13,191,53,0
208233,10,237,39,0
208243,16,243,46,0
208253,16,265,53,0
208263,11,224,46,0
208273,14,233,50,0
208283,9,210,49,0
208293,11,157,50,0
208303,12,191,45,0
208313,12,210,36,0
208323,3,206,38,0
208333,5,217,47,0
208343,11,210,50,0
208354,15,181,54,0
208364,8,210,40,0
208374,12,184,37,0
208384,6,211,34,0
208394,3,232,35,0
208404,12,233,40,0
208414,5,200,29,0
208424,6,203,31,0
208434,8,239,33,0
208444,10,215,45,0
208454,7,228,41,0
208464,7,204,49,0
208474,4,199,55,0
208484,8,224,51,0
208494,13,193,53,0
208504,8,200,48,0
208514,9,182,50,0
208524,11,200,47,0
208534,13,186,55,0
208544,8,164,52,0
208554,16,228,51,0
208565,9,193,59,0
208575,14,205,52,0
208585,10,189,62,0
208595,5,169,54,0
208605,12,186,49,0
208615,7,172,46,0
208625,11,142,53,0
208635,12,195,69,0
208645,4,178,61,0
208655,12,156,67,0
208665,7,145,53,0
208675,9,127,50,0
208685,11,177,50,0
208695,6,167,46,0
208705,30,248,48,0
208715,56,216,76,0
208725,54,219,98,0
208735,84,224,86,0
208745,69,215,147,0
208755,48,230,148,0
208765,35,282,102,0
208776,20,250,79,0
208786,16,242,69,0
208796,12,210,59,0
208806,11,230,53,0
208816,9,242,55,0
208826,13,218,52,0
208836,5,217,49,0
208846,8,205,42,0
208856,12,171,33,0
208866,15,223,44,0
208876,9,187,36,0
208886,12,198,39,0
208896,12,209,54,0
208906,9,188,56,0
208916,12,199,48,0
208926,11,181,46,0
208936,13,211,44,0
208946,5,226,35,0
208956,5,217,43,0
208966,9,240,45,0
208977,7,225,46,0
208987,11,216,44,0
208997,14,176,42,0
209007,7,193,41,0
209017,13,223,53,0
209027,5,219,44,0
209037,12,223,54,0
209047,15,214,55,0
209057,13,235,43,0
209067,12,206,39,0
209077,8,194,39,0
209087,9,239,36,0
209097,16,206,31,0
209107,1,211,26,0
209117,11,166,33,0
209127,8,189,35,0
209137,13,160,48,0
209147,2,199,45,0
209157,15,205,43,0
209167,9,211,51,0
209177,7,196,57,0
209188,13,211,43,0
209198,7,182,38,0
209208,12,172,47,0
209218,12,144,40,0
209228,9,130,33,0
209238,12,149,38,0
209248,3,139,30,0
209258,8,167,52,0
209268,8,165,55,0
209278,12,167,43,0
209288,5,147,46,0
209298,15,114,46,0
209308,14,140,49,0
209318,14,161,43,0
209328,11,224,36,0
209338,13,195,44,0
209348,9,206,55,0
209358,11,197,42,0
209368,10,169,40,0
209378,6,149,37,0
209388,2,167,36,0
209399,7,152,39,0
209409,12,142,37,0
209419,22,142,44,0
209429,55,169,57,0
209439,55,162,87,0
209449,68,144,85,0
209459,80,162,127,0
209469,59,188,150,0
209479,39,184,124,0
209489,22,244,94,0
209499,28,234,83,0
209509,17,224,67,0
209519,19,192,51,0
209529,17,206,54,0
209539,12,225,50,0
209549,11,228,48,0
209559,8,217,38,0
209569,10,230,43,0
209579,9,194,44,0
209589,2,178,43,0
209599,9,175,36,0
209610,7,209,36,0
209620,11,231,36,0
209630,4,216,42,0
209640,10,195,39,0
209650,15,157,36,0
209660,5,142,34,0
209670,15,132,35,0
209680,12,160,31,0
209690,18,178,31,0
209700,18,154,36,0
209710,12,126,36,0
209720,13,149,38,0
209730,4,191,34,0
209740,8,153,35,0
209750,11,147,35,0
209760,10,136,36,0
209770,7,138,38,0
209780,7,110,41,0
209790,13,95,49,0
209800,12,94,47,0
209810,3,90,40,0
209821,8,107,44,0
209831,7,186,36,0
209841,8,152,36,0
209851,6,129,35,0
209861,9,126,44,0
209871,8,115,45,0
209881,5,94,50,0
209891,11,100,44,0
209901,10,97,35,0
209911,15,102,42,0
209921,4,174,41,0
209931,4,167,40,1001
209941,8,142,39,0
209951,15,125,36,0
209961,15,99,30,0
209971,13,92,35,0
209981,13,92,38,0
209991,9,109,41,0
210001,15,105,36,0
210011,13,88,46,0
210021,10,87,44,0
210032,16,71,46,0
210042,8,65,42,0
210052,6,74,43,0
210062,6,70,43,0
210072,16,76,46,0
210082,16,67,38,0
210092,11,71,43,0
210102,4,80,45,0
210112,9,138,40,0
210122,9,159,40,0
210132,3,184,42,0
210142,14,135,39,0
210152,8,112,44,0
210162,5,97,37,0
210172,32,86,52,0
210182,52,79,79,0
210192,58,82,93,0
210202,81,71,91,0
210212,63,62,121,0
210222,41,75,122,0
210232,30,67,107,0
210243,21,66,80,0
210253,22,71,66,0
210263,23,72,67,0
210273,16,65,64,0
210283,9,86,48,0
210293,17,76,47,0
210303,12,79,48,0
210313,9,69,45,0
210323,10,59,43,0
210333,9,52,37,0
210343,8,55,37,0
210353,9,60,35,0
210363,12,64,37,0
210373,15,65,31,0
210383,10,63,36,0
210393,14,57,31,0
210403,11,57,38,0
210413,7,86,38,0
210423,19,93,42,0
210433,18,77,45,0
210444,16,70,43,0
210454,19,88,41,0
210464,9,76,38,0
210474,15,75,33,0
210484,15,65,42,0
210494,5,48,36,0
210504,7,50,35,0
210514,15,49,33,0
210524,10,56,29,0
210534,6,70,27,0
210544,15,67,33,0
210554,16,86,29,0
210564,7,75,38,0
210574,11,74,36,0
210584,6,73,33,0
210594,10,64,39,0
210604,13,57,35,0
210614,16,74,44,0
210624,11,77,38,0
210634,14,62,33,0
210644,18,61,31,0
210655,11,66,38,0
210665,9,80,36,0
210675,9,69,36,0
210685,8,92,35,0
210695,15,79,41,0
210705,7,57,33,0
210715,15,53,34,0
210725,11,73,41,0
210735,6,66,39,0
210745,12,79,40,0
210755,11,65,29,0
210765,3,75,35,0
210775,13,64,44,0
210785,8,53,40,0
210795,8,58,42,0
210805,9,45,38,0
210815,14,49,43,0
210825,7,47,40,0
210835,7,46,40,0
210845,7,48,40,0
210855,16,50,47,0
210866,12,50,44,0
210876,13,50,39,0
210886,15,48,43,0
210896,16,43,47,0
210906,52,42,61,0
210916,57,46,86,0
210926,71,52,83,0
210936,85,48,104,0
210946,63,55,145,0
210956,43,88,123,0
210966,34,86,101,0
210976,26,77,80,0
210986,12,62,58,0
210996,13,63,58,0
211006,10,52,49,0
211016,13,46,43,0
211026,10,42,44,0
211036,6,56,36,0
211046,7,79,42,0
211056,9,61,45,0
211066,10,75,38,0
211077,12,70,34,0
211087,7,63,33,0
211097,3,55,32,0
211107,5,58,35,0
211117,8,56,30,0
211127,7,66,35,0
211137,11,53,28,0
211147,17,61,33,0
211157,12,47,27,0
211167,10,47,31,0
211177,9,49,32,0
211187,9,49,42,0
211197,16,56,38,0
211207,10,75,33,0
211217,15,84,35,0
211227,14,71,34,0
211237,4,57,27,0
211247,6,50,27,0
211257,9,53,38,0
211267,9,41,39,0
211277,8,50,45,0
211288,10,48,38,0
211298,10,38,39,0
211308,9,42,44,0
211318,3,41,49,0
211328,9,38,37,0
211338,13,45,37,0
211348,12,51,31,0
211358,12,42,34,0
211368,10,47,40,0
211378,5,50,41,0
211388,12,49,31,0
211398,8,44,33,0
211408,12,56,33,0
211418,14,61,42,0
211428,11,59,38,0
211438,10,58,37,0
211448,12,59,36,0
211458,10,53,41,0
211468,6,61,47,0
211478,16,67,54,0
211488,8,52,48,0
211499,12,52,60,0
211509,10,53,62,0
211519,14,48,48,0
211529,6,56,48,0
211539,11,57,42,0
211549,9,68,41,0
211559,11,74,40,0
211569,15,79,45,0
211579,10,69,36,0
211589,15,68,45,0
211599,10,58,43,0
211609,6,59,48,0
211619,8,57,44,0
211629,26,51,47,0
211639,50,57,54,0
211649,57,55,89,0
211659,82,44,89,0
211669,80,48,123,0
211679,55,58,152,0
211689,40,76,112,0
211699,25,59,86,0
211710,22,54,67,0
211720,15,61,57,0
211730,17,56,43,0
211740,17,66,39,0
211750,17,72,42,0
211760,10,74,40,0
211770,5,75,39,0
211780,13,81,36,0
211790,12,67,36,0
211800,7,86,37,0
211810,10,75,34,0
211820,11,65,37,0
211830,5,60,33,0
211840,7,44,34,0
211850,11,51,36,0
211860,11,47,33,0
211870,18,54,30,800
211880,20,52,40,0
211890,18,57,37,0
211900,20,57,40,0
211910,15,54,38,0
211921,11,48,38,0
211931,10,55,40,0
211941,11,49,41,0
211951,9,46,36,0
211961,9,43,33,0
211971,13,44,34,0
211981,19,49,47,0
211991,15,49,36,0
212001,13,63,34,0
212011,5,62,34,0
212021,16,60,30,0
212031,8,60,37,0
212041,13,56,38,0
212051,7,56,50,0
212061,10,53,46,0
212071,5,52,46,0
212081,7,52,38,0
212091,12,52,51,0
212101,10,53,39,0
212111,13,59,36,0
212121,15,79,36,0
212132,4,64,36,0
212142,10,65,52,0
212152,16,61,53,0
212162,14,59,50,0
212172,13,64,58,0
212182,3,60,56,0
212192,9,55,47,0
212202,2,56,40,0
212212,12,54,52,0
212222,12,50,55,0
212232,9,44,47,0
212242,14,46,37,0
212252,9,61,42,0
212262,10,46,39,0
212272,10,62,44,0
212282,6,87,48,0
212292,14,91,48,0
212302,10,76,35,0
212312,16,84,30,0
212322,6,77,42,0
212332,20,102,45,0
212343,47,82,60,0
212353,50,81,83,0
212363,71,82,97,0
212373,93,85,111,0
212383,69,80,141,0
212393,40,58,124,0
212403,31,50,97,0
212413,18,56,77,0
212423,19,74,59,0
212433,14,67,51,0
212443,10,65,52,0
212453,9,67,42,0
212463,14,61,41,0
212473,15,51,38,0
212483,14,48,43,0
212493,11,51,46,0
212503,17,41,37,0
212513,5,60,33,0
212523,12,57,34,0
212533,15,53,35,0
212543,11,52,31,0
212554,17,45,33,0
212564,6,82,37,0
212574,18,71,31,0
212584,12,78,32,0
212594,12,60,36,0
212604,16,53,32,0
212614,13,64,32,0
212624,10,57,43,0
212634,15,66,42,0
212644,18,69,40,0
212654,8,64,36,0
212664,14,64,37,0
212674,7,67,30,0
212684,6,58,35,0
212694,4,78,35,0
212704,10,74,30,0
212714,8,73,35,0
212724,8,62,37,0
212734,7,46,29,0
212744,11,47,36,0
212754,12,63,38,0
212765,13,65,38,0
212775,8,94,42,0
212785,10,75,28,0
212795,18,99,37,0
212805,12,111,33,0
212815,14,94,37,0
212825,12,95,31,0
212835,9,110,34,0
212845,10,104,34,0
212855,11,81,41,0
212865,11,96,39,0
212875,11,100,40,0
212885,7,92,46,0
212895,19,97,43,0
212905,12,90,44,0
212915,11,93,39,0
212925,10,73,30,0
212935,17,56,29,0
212945,12,44,48,0
212955,11,51,44,0
212965,8,69,44,0
212976,12,86,38,0
212986,8,95,36,0
212996,13,114,34,0
213006,10,143,37,0
213016,5,106,39,0
213026,9,90,40,0
213036,16,77,35,0
213046,14,77,42,0
213056,10,72,42,0
213066,7,110,40,0
213076,4,103,48,0
213086,24,116,49,0
213096,63,104,70,0
213106,61,100,102,0
213116,78,135,97,0
213126,80,124,136,0
213136,55,105,149,0
213146,35,95,126,0
213156,22,112,90,0
213166,15,98,75,0
213176,13,97,58,0
213187,18,73,49,0
213197,17,75,58,0
213207,17,59,50,0
213217,13,52,48,0
213227,15,56,55,0
213237,14,58,44,0
213247,14,51,42,0
213257,9,53,41,0
213267,9,51,39,0
213277,16,43,42,0
213287,9,35,40,0
213297,4,39,38,0
213307,7,39,40,0
213317,15,49,35,0
213327,17,60,41,0
213337,20,66,41,0
213347,17,66,35,0
213357,14,70,36,0
213367,16,94,46,801
213377,10,131,46,0
213387,16,113,42,0
213398,16,121,40,0
213408,7,119,46,0
213418,10,97,48,0
213428,13,95,40,0
213438,16,129,35,0
213448,12,118,38,0
213458,4,193,42,0
213468,8,168,42,0
213478,5,120,36,0
213488,5,88,29,0
213498,13,66,40,0
213508,4,65,36,0
213518,8,75,36,0
213528,5,79,37,0
213538,7,69,39,0
213548,8,68,38,0
213558,11,65,39,0
213568,9,57,33,0
213578,17,69,39,0
213588,11,99,37,0
213598,14,157,38,0
213609,18,157,39,0
213619,14,155,35,0
213629,15,255,40,0
213639,13,256,47,0
213649,15,214,49,0
213659,8,190,44,0
213669,12,170,43,0
213679,14,125,49,0
213689,18,130,54,0
213699,11,115,49,0
213709,9,107,50,0
213719,7,145,38,0
213729,13,134,37,0
213739,10,140,38,0
213749,13,141,41,0
213759,16,117,34,0
213769,14,108,37,0
213779,12,102,43,0
213789,9,95,39,0
213799,11,83,31,0
213810,11,94,39,0
213820,10,96,38,0
213830,12,113,57,0
213840,10,98,54,0
213850,51,117,66,0
213860,61,151,87,0
213870,73,143,98,0
213880,80,120,125,0
213890,70,141,147,0
213900,49,144,121,0
213910,28,115,88,0
213920,17,111,71,0
213930,29,127,68,0
213940,15,143,50,0
213950,16,134,46,0
213960,18,131,48,0
213970,15,144,38,0
213980,17,166,42,0
213990,16,192,38,0
214000,9,168,48,0
214010,6,236,44,0
214021,4,237,49,0
214031,9,215,39,0
214041,11,239,38,0
214051,8,183,35,0
214061,5,194,38,0
214071,9,155,42,0
214081,14,172,53,0
214091,14,209,51,0
214101,14,233,47,0
214111,15,195,51,0
214121,15,160,46,0
214131,9,160,44,0
214141,15,189,43,0
214151,8,208,43,0
214161,15,209,36,0
214171,9,166,35,0
214181,4,167,41,0
214191,16,135,46,0
214201,8,115,36,0
214211,18,113,36,0
214221,17,114,46,0
214232,8,134,43,0
214242,18,239,43,0
214252,11,252,46,0
214262,12,229,42,0
214272,6,231,37,0
214282,11,212,32,0
214292,10,168,32,0
214302,12,222,44,0
214312,7,246,42,0
214322,11,231,37,0
214332,9,252,44,0
214342,11,252,39,0
214352,6,247,39,0
214362,6,250,44,0
214372,14,244,51,0
214382,5,231,48,0
214392,13,255,36,0
214402,16,236,40,0
214412,14,221,48,0
214422,6,169,50,0
214432,9,157,65,0
214443,16,146,84,0
214453,13,151,62,0
214463,11,163,76,0
214473,13,148,70,0
214483,14,147,58,0
214493,12,149,57,0
214503,11,162,57,0
214513,13,188,51,0
214523,14,178,53,0
214533,10,241,45,0
214543,7,203,68,0
214553,13,161,66,0
214563,16,219,61,0
214573,14,216,52,0
214583,8,196,46,0
214593,42,293,53,0
214603,58,290,63,0
214613,73,323,101,0
214623,85,309,93,0
214633,68,237,124,0
214643,38,199,103,0
214654,32,181,81,0
214664,20,141,75,0
214674,23,146,66,0
214684,16,168,55,0
214694,17,152,58,0
214704,17,187,58,0
214714,16,187,56,0
214724,16,180,75,0
214734,13,166,68,0
214744,13,194,59,0
214754,10,152,53,0
214764,11,128,57,0
214774,10,150,53,0
214784,9,157,63,0
214794,4,226,67,0
214804,5,245,59,0
214814,9,245,67,0
214824,17,241,67,0
214834,17,253,99,0
214844,29,246,85,0
214854,15,266,79,0
214865,17,262,85,0
214875,21,188,76,0
214885,17,162,68,0
214895,22,156,55,0
214905,12,220,62,0
214915,15,245,55,0
214925,5,244,59,0
214935,8,226,58,0
214945,9,180,54,0
214955,8,210,49,0
214965,6,204,54,0
214975,9,193,46,0
214985,14,228,47,0
214995,13,197,39,0
215005,3,185,38,0
215015,7,165,40,0
215025,15,182,41,0
215035,6,179,52,0
215045,13,165,41,0
215055,7,175,59,0
215066,9,174,46,0
215076,12,139,48,0
215086,9,153,48,0
215096,3,187,40,0
215106,6,199,56,0
215116,14,247,55,0
215126,7,252,53,0
215136,14,278,52,0
215146,9,251,59,0
215156,17,218,58,0
215166,19,203,61,0
215176,13,168,57,0
215186,14,194,53,0
215196,7,211,43,0
215206,17,189,57,0
215216,14,208,59,0
215226,14,198,77,0
215236,16,179,74,0
215246,14,190,80,0
215256,16,180,70,0
215266,17,190,68,0
215277,17,191,60,0
215287,11,199,52,0
215297,21,196,56,0
215307,15,181,52,0
215317,17,214,56,0
215327,28,205,54,0
215337,57,230,72,0
215347,50,228,105,0
215357,79,173,98,0
215367,81,173,109,0
215377,59,166,141,0
215387,44,203,128,0
215397,35,174,89,0
215407,27,143,72,0
215417,14,151,67,0
215427,15,161,73,0
215437,13,150,56,0
215447,14,164,54,0
215457,18,132,49,0
215467,15,160,62,0
215477,8,160,67,0
215488,14,182,62,0
215498,17,145,53,0
215508,16,173,63,0
215518,20,141,66,0
215528,20,204,55,0
215538,18,185,76,0
215548,13,150,66,0
215558,12,199,57,0
215568,12,174,61,0
215578,17,186,50,0
215588,22,211,65,0
215598,18,189,54,0
215608,10,167,47,0
215618,12,171,49,0
215628,6,158,47,0
215638,15,135,46,0
215648,15,174,50,0
215658,9,158,57,0
215668,11,164,66,0
215678,15,142,71,0
215688,13,193,60,0
215699,11,179,57,0
215709,20,140,58,0
215719,7,152,68,0
215729,12,146,53,0
215739,8,180,52,0
215749,12,214,57,0
215759,11,212,55,0
215769,11,208,53,0
215779,6,218,42,0
215789,15,226,50,0
215799,7,208,47,0
215809,12,214,47,0
215819,16,239,39,0
215829,14,283,45,0
215839,10,255,46,0
215849,13,280,46,0
215859,8,214,55,0
215869,3,225,55,0
215879,15,229,59,0
215889,12,186,77,0
215899,16,216,70,0
215910,14,199,51,0
215920,17,206,54,0
215930,7,191,59,0
215940,17,178,67,0
215950,15,206,58,0
215960,10,231,48,0
215970,14,216,49,0
215980,12,218,62,0
215990,17,226,67,0
216000,18,202,68,0
216010,6,192,54,0
216020,10,186,52,0
216030,13,204,63,0
216040,12,187,83,0
216050,29,179,80,0
216060,41,227,107,0
216070,50,250,122,0
216080,83,235,116,0
216090,62,226,176,0
216100,50,188,149,0
216111,37,210,105,0
216121,20,222,82,0
216131,19,210,71,0
216141,12,220,60,0
216151,11,219,64,0
216161,14,184,62,0
216171,17,175,58,0
216181,13,161,51,0
216191,5,156,52,0
216201,16,161,50,0
216211,17,187,59,0
216221,6,197,58,0
216231,13,180,51,0
216241,14,195,57,0
216251,15,168,49,0
216261,10,181,50,0
216271,10,137,53,0
216281,9,206,60,0
216291,12,224,54,0
216301,14,267,54,0
216311,10,226,48,802
216322,15,216,48,0
216332,15,200,65,0
216342,18,173,73,0
216352,14,178,67,0
216362,16,164,64,0
216372,15,136,57,0
216382,11,154,46,0
216392,9,149,40,0
216402,11,158,48,0
216412,20,154,47,0
216422,16,136,54,0
216432,15,178,64,0
216442,10,180,59,0
216452,14,175,53,0
216462,10,180,56,0
216472,10,149,54,0
216482,12,168,51,0
216492,17,194,45,0
216502,9,195,48,0
216512,16,195,55,0
216522,14,158,46,0
216533,14,131,51,0
216543,15,167,57,0
216553,11,176,44,0
216563,6,249,56,0
216573,10,237,58,0
216583,14,204,51,0
216593,16,196,59,0
216603,17,184,66,0
216613,11,189,71,0
216623,9,175,67,0
216633,3,165,80,0
216643,13,165,89,0
216653,14,185,70,0
216663,14,174,68,0
216673,12,174,61,0
216683,6,187,53,0
216693,16,201,57,0
216703,4,171,56,0
216713,9,202,54,0
216723,6,203,49,0
216733,10,209,52,0
216744,12,193,50,0
216754,15,177,60,0
216764,25,212,64,0
216774,47,191,63,0
216784,47,187,94,0
216794,63,205,79,0
216804,64,201,103,0
216814,51,221,127,0
216824,28,258,130,0
216834,33,233,108,0
216844,25,192,80,0
216854,24,203,71,0
216864,18,194,59,0
216874,8,183,54,0
216884,15,174,46,0
216894,14,129,45,0
216904,17,144,49,0
216914,8,135,69,0
216924,12,114,61,0
216934,15,108,58,0
216944,16,134,58,0
216955,5,169,67,0
216965,10,169,55,0
216975,21,213,46,0
216985,12,184,53,0
216995,9,147,51,0
217005,16,142,47,0
217015,12,133,53,0
217025,18,165,63,0
217035,19,202,55,0
217045,18,186,60,0
217055,18,169,63,0
217065,15,207,64,0
217075,18,232,59,0
217085,5,230,61,0
217095,11,212,62,0
217105,16,191,44,0
217115,10,191,45,0
217125,18,162,39,0
217135,11,177,47,0
217145,12,171,41,0
217155,13,157,46,0
217166,5,165,51,0
217176,14,151,58,0
217186,7,140,45,0
217196,17,154,48,0
217206,13,161,62,0
217216,16,132,56,0
217226,15,123,49,0
217236,14,137,54,0
217246,12,163,52,0
217256,9,150,49,0
217266,6,161,48,0
217276,3,184,37,0
217286,18,184,43,0
217296,13,150,52,0
217306,12,162,48,0
217316,10,186,50,0
217326,11,181,40,0
217336,9,200,39,0
217346,17,206,46,0
217356,8,206,44,0
217367,5,176,46,0
217377,11,174,32,0
217387,11,182,38,0
217397,15,194,52,0
217407,14,163,48,0
217417,13,144,50,0
217427,6,147,48,0
217437,16,192,44,0
217447,11,171,48,0
217457,37,221,54,0
217467,53,200,72,0
217477,58,197,103,0
217487,66,187,130,0
217497,60,208,160,0
217507,42,194,137,0
217517,26,176,101,0
217527,29,180,74,0
217537,15,170,65,0
217547,19,168,57,0
217557,10,186,52,0
217567,12,146,52,0
217578,14,135,51,0
217588,4,118,55,0
217598,9,175,55,0
217608,6,169,66,0
217618,16,193,77,0
217628,10,194,65,0
217638,15,173,77,0
217648,9,178,62,0
217658,6,209,52,0
217668,9,201,62,0
217678,14,192,47,0
217688,18,201,51,0
217698,13,199,50,0
217708,11,172,54,0
217718,11,175,51,0
217728,7,126,50,0
217738,12,128,51,0
217748,12,133,47,0
217758,13,132,57,0
217768,8,168,55,0
217778,5,145,52,0
217789,16,139,55,0
217799,9,120,50,0
217809,4,174,53,0
217819,9,146,48,0
217829,7,186,63,0
217839,10,213,52,0
217849,12,232,66,0
217859,17,202,55,0
217869,5,180,55,0
217879,13,155,53,0
217889,7,201,45,0
217899,11,182,45,0
217909,4,216,63,0
217919,17,189,67,0
217929,9,186,77,0
217939,8,157,68,0
217949,5,132,68,0
217959,13,151,79,0
217969,13,160,69,0
217979,10,195,59,0
217989,10,156,54,0
218000,12,194,51,0
218010,7,223,49,0
218020,15,170,52,0
218030,9,144,45,0
218040,10,135,45,0
218050,11,136,57,0
218060,16,188,48,0
218070,16,239,50,0
218080,6,212,59,0
218090,10,205,51,0
218100,9,170,46,0
218110,13,167,52,0
218120,12,181,56,0
218130,14,153,59,0
218140,9,197,70,0
218150,9,225,64,0
218160,13,235,70,0
218170,39,230,62,0
218180,59,233,83,0
218190,66,203,100,0
218200,86,187,97,0
218211,76,197,126,0
218221,48,196,117,0
218231,35,193,121,0
218241,22,206,98,0
218251,23,220,82,0
218261,16,251,69,0
218271,17,246,55,0
218281,10,251,56,0
218291,7,267,51,0
218301,11,203,58,0
218311,13,207,55,0
218321,9,187,56,0
218331,7,227,49,0
218341,10,189,34,0
218351,10,205,48,0
218361,4,166,38,0
218371,15,163,42,1001
218381,11,175,41,0
218391,10,201,39,0
218401,8,237,38,0
218411,14,201,52,0
218422,17,212,52,0
218432,13,236,43,0
218442,15,215,46,0
218452,12,215,58,0
218462,19,181,46,0
218472,16,180,50,0
218482,11,165,42,0
218492,8,163,39,0
218502,9,157,41,0
218512,5,183,49,0
218522,10,171,52,0
218532,15,141,45,0
218542,15,130,46,0
218552,11,171,44,0
218562,4,186,46,0
218572,11,138,42,0
218582,16,118,43,0
218592,15,105,41,0
218602,13,128,41,0
218612,11,105,35,0
218622,10,154,40,0
218633,10,153,35,0
218643,11,171,38,0
218653,13,125,41,0
218663,7,115,40,0
218673,9,145,32,0
218683,10,129,39,0
218693,10,145,37,0
218703,15,129,43,0
218713,11,101,48,0
218723,18,99,51,0
218733,13,106,48,0
218743,10,103,39,0
218753,10,136,34,0
218763,8,141,44,0
218773,11,170,49,0
218783,9,144,41,0
218793,14,121,40,0
218803,14,110,36,0
218813,12,142,44,0
218823,11,154,41,0
218834,13,137,38,0
218844,6,111,45,0
218854,9,111,34,0
218864,9,147,43,0
218874,21,150,37,0
218884,22,130,39,0
218894,16,109,37,0
218904,17,99,36,0
218914,15,112,34,0
218924,29,152,37,0
218934,59,155,68,0
218944,55,150,109,0
218954,88,141,96,0
218964,86,134,116,0
218974,51,134,105,0
218984,44,128,90,0
218994,36,168,78,0
219004,21,122,62,0
219014,18,98,54,0
219024,18,106,51,0
219034,16,95,50,0
219045,6,107,40,0
219055,6,109,44,0
219065,12,102,35,0
219075,9,127,43,0
219085,12,125,41,0
219095,6,114,36,0
219105,7,96,37,0
219115,14,86,33,0
219125,12,96,28,0
219135,15,89,37,0
219145,8,96,32,0
219155,15,99,40,0
219165,19,82,37,0
219175,11,103,33,0
219185,13,99,38,0
219195,16,93,38,0
219205,16,74,30,0
219215,24,60,26,0
219225,52,71,30,0
219235,61,63,42,0
219245,74,59,43,0
219256,70,50,48,0
219266,65,48,38,0
219276,52,45,31,0
219286,36,57,36,0
219296,27,87,30,0
219306,24,89,31,0
219316,24,120,41,0
219326,21,93,35,0
219336,12,93,38,0
219346,16,106,41,0
219356,8,99,41,0
219366,11,105,35,0
219376,11,94,41,0
219386,9,80,36,0
219396,9,74,48,0
219406,9,58,46,0
219416,10,63,49,0
219426,7,53,43,0
219436,9,63,49,0
219446,14,67,48,0
219456,12,60,45,0
219467,3,80,45,0
219477,9,100,39,0
219487,7,94,35,0
219497,11,82,36,0
219507,10,91,40,0
219517,11,77,37,0
219527,13,67,39,0
219537,15,62,36,0
219547,5,66,36,0
219557,12,57,38,0
219567,11,51,42,0
219577,10,55,39,0
219587,8,49,45,0
219597,8,47,37,0
219607,10,46,37,0
219617,8,59,41,0
219627,11,71,34,0
219637,11,117,38,0
219647,10,82,44,0
219657,16,82,49,1000
219667,40,68,52,600
219678,56,53,67,0
219688,63,65,96,0
219698,84,92,90,0
219708,74,90,147,0
219718,46,88,136,0
219728,36,76,100,0
219738,28,63,87,0
219748,22,53,67,0
219758,16,46,62,0
219768,14,50,58,0
219778,9,51,44,0
219788,8,45,40,0
219798,10,54,34,0
219808,15,48,30,0
219818,15,54,36,0
219828,3,55,34,0
219838,3,52,36,0
219848,9,67,41,0
219858,9,58,46,0
219868,4,75,42,0
219878,10,115,40,0
219889,5,91,37,0
219899,8,74,34,0
219909,15,52,32,0
219919,13,57,31,0
219929,20,54,34,0
219939,13,51,35,0
219949,12,69,35,0
219959,10,76,38,0
219969,13,68,46,0
219979,6,90,33,0
219989,12,91,31,0
219999,9,71,35,0
220009,10,60,32,0
220019,5,54,32,0
220029,5,60,37,0
220039,14,69,41,0
220049,9,68,35,0
220059,7,63,31,0
220069,4,61,33,0
220079,15,53,34,0
220089,11,52,37,0
220100,12,67,42,0
220110,7,72,48,0
220120,11,67,44,0
220130,9,71,46,0
220140,9,65,39,0
220150,18,64,41,0
220160,16,86,35,0
220170,7,97,26,0
220180,16,84,40,0
220190,12,92,39,0
220200,4,68,33,0
220210,7,60,53,0
220220,3,52,55,0
220230,6,69,48,0
220240,11,58,48,0
220250,10,46,58,0
220260,14,47,51,0
220270,17,41,47,0
220280,9,43,40,0
220290,13,51,49,0
220300,3,57,37,0
220311,10,83,38,0
220321,13,97,44,0
220331,5,92,37,0
220341,10,78,44,0
220351,7,58,49,0
220361,11,47,54,0
220371,22,55,53,0
220381,66,57,74,0
220391,57,55,93,0
220401,81,73,83,0
220411,87,51,131,0
220421,61,46,133,0
220431,37,55,112,0
220441,27,50,79,0
220451,22,69,69,0
220461,18,63,57,0
220471,18,90,56,0
220481,12,81,46,0
220491,6,85,42,0
220501,6,63,37,0
220511,11,59,39,0
220522,14,63,41,0
220532,9,82,38,0
220542,13,70,31,0
220552,10,68,29,0
220562,8,77,33,0
220572,13,84,34,0
220582,12,93,37,0
220592,8,74,31,0
220602,9,67,30,0
220612,10,68,38,0
220622,15,71,32,0
220632,23,59,42,0
220642,17,57,37,0
220652,16,53,38,0
220662,18,44,39,0
220672,13,49,31,0
220682,16,48,35,0
220692,9,45,39,0
220702,14,50,36,0
220712,19,41,42,0
220722,13,49,36,0
220733,14,51,40,0
220743,14,53,38,0
220753,6,47,42,0
220763,16,48,45,0
220773,14,40,36,0
220783,16,40,39,0
220793,10,38,45,0
220803,3,46,43,0
220813,4,46,35,0
220823,13,59,45,0
220833,10,54,36,0
220843,13,49,38,0
220853,14,39,34,0
220863,7,52,34,0
220873,8,53,36,0
220883,11,57,36,0
220893,12,47,41,0
220903,4,64,37,0
220913,11,55,29,0
220923,7,60,34,0
220933,9,44,41,0
220944,3,45,27,0
220954,5,52,37,0
220964,13,58,40,0
220974,10,69,42,0
220984,9,80,35,0
220994,6,78,49,0
221004,10,66,52,0
221014,7,54,41,0
221024,14,48,36,0
221034,12,51,42,0
221044,7,58,41,0
221054,15,51,47,0
221064,12,45,35,0
221074,7,44,35,0
221084,12,40,39,0
221094,12,47,49,0
221104,14,63,43,0
221114,16,54,42,0
221124,14,48,47,0
221134,58,49,54,0
221144,44,51,80,0
221155,83,44,92,0
221165,83,49,117,601
221175,54,44,144,0
221185,35,55,126,0
221195,31,52,96,0
221205,22,49,75,0
221215,18,55,67,0
221225,16,64,57,0
221235,15,55,46,0
221245,12,53,44,0
221255,17,60,46,0
221265,11,55,36,0
221275,6,54,37,0
221285,7,57,39,0
221295,15,78,40,0
221305,12,69,27,0
221315,14,61,33,0
221325,13,77,32,0
221335,11,74,36,0
221345,3,144,32,0
221356,7,201,33,0
221366,13,174,37,0
221376,15,228,43,0
221386,15,257,41,0
221396,11,227,34,0
221406,10,167,31,0
221416,16,143,35,0
221426,18,107,41,0
221436,6,121,47,0
221446,14,128,43,0
221456,10,143,41,0
221466,10,131,35,0
221476,15,121,33,0
221486,7,108,33,0
221496,17,92,40,0
221506,11,94,39,0
221516,13,115,39,0
221526,9,103,38,0
221536,12,108,43,0
221546,11,112,40,0
221556,6,131,34,0
221567,14,127,39,0
221577,16,110,42,0
221587,10,107,50,0
221597,15,92,47,0
221607,5,97,36,0
221617,9,131,39,0
221627,10,154,33,0
221637,6,128,40,0
221647,14,107,34,0
221657,11,102,40,0
221667,14,102,50,0
221677,11,93,44,0
221687,3,78,39,0
221697,4,130,47,0
221707,8,123,56,0
221717,14,136,47,0
221727,9,130,45,0
221737,16,118,67,0
221747,9,136,57,0
221757,7,127,56,0
221767,11,124,58,0
221778,7,105,50,0
221788,6,96,53,0
221798,11,129,48,0
221808,15,138,42,0
221818,11,128,43,0
221828,19,122,39,0
221838,10,104,39,0
221848,15,99,56,0
221858,14,109,62,0
221868,39,130,74,0
221878,53,144,90,0
221888,46,207,133,0
221898,75,164,116,0
221908,67,146,155,0
221918,45,135,130,0
221928,23,123,96,0
221938,15,122,80,0
221948,19,103,63,0
221958,5,105,53,0
221968,13,90,49,0
221978,10,90,51,0
221989,10,91,64,0
221999,15,97,52,0
222009,17,120,38,0
222019,8,107,41,0
222029,11,101,44,0
222039,11,107,38,0
222049,17,113,44,0
222059,18,101,47,0
222069,20,99,46,0
222079,9,91,48,0
222089,15,95,54,0
222099,18,110,55,0
222109,13,127,52,0
222119,19,152,55,0
222129,13,131,47,0
222139,16,103,48,0
222149,19,126,45,0
222159,12,112,49,0
222169,8,98,38,0
222179,15,104,38,0
222189,10,93,40,0
222200,9,74,37,0
222210,15,74,35,0
222220,8,94,35,0
222230,10,126,46,0
222240,7,114,51,0
222250,8,148,56,0
222260,17,160,51,0
222270,11,155,48,0
222280,11,125,41,0
222290,11,127,48,0
222300,10,166,41,0
222310,15,157,51,0
222320,12,128,37,0
222330,5,116,36,0
222340,9,99,35,0
222350,9,102,40,0
222360,6,101,42,0
222370,10,120,57,0
222380,6,118,64,0
222390,10,112,44,0
222400,22,106,47,0
222411,24,111,39,0
222421,19,126,39,0
222431,12,130,47,0
222441,9,133,42,0
222451,15,134,58,0
222461,17,134,55,0
222471,22,192,57,0
222481,9,197,45,0
222491,12,174,43,0
222501,12,164,38,0
222511,9,174,41,0
222521,14,147,40,0
222531,4,118,46,0
222541,5,111,53,0
222551,13,103,72,0
222561,9,111,83,0
222571,9,95,69,0
222581,56,99,83,0
222591,59,85,115,0
222601,72,80,119,0
222611,90,168,132,0
222622,68,168,149,0
222632,54,181,142,0
222642,37,137,109,0
222652,29,136,81,0
222662,25,128,78,0
222672,20,156,64,0
222682,19,123,61,0
222692,12,156,57,0
222702,17,151,50,0
222712,21,176,60,0
222722,17,163,59,0
222732,14,138,51,0
222742,18,121,44,0
222752,11,104,43,0
222762,21,94,42,0
222772,15,92,55,0
222782,16,119,60,0
222792,14,113,52,0
222802,9,103,63,0
222812,18,101,57,0
222822,16,117,57,0
222833,11,127,50,0
222843,27,120,42,0
222853,20,87,46,0
222863,24,101,64,0
222873,28,105,62,0
222883,15,105,50,0
222893,15,119,51,0
222903,13,121,51,0
222913,19,121,54,0
222923,14,134,47,0
222933,21,124,40,0
222943,15,149,58,0
222953,9,147,54,0
222963,9,149,53,0
222973,9,141,50,0
222983,9,141,59,0
222993,19,108,49,0
223003,16,115,46,0
223013,17,128,52,0
223023,23,117,57,0
223034,22,161,56,0
223044,20,252,67,0
223054,31,196,61,0
223064,32,183,47,0
223074,25,171,46,0
223084,26,183,43,0
223094,18,145,46,0
223104,28,154,41,0
223114,15,126,42,0
223124,15,155,50,0
223134,19,122,46,0
223144,8,222,46,0
223154,10,197,54,0
223164,15,256,58,0
223174,19,247,57,0
223184,18,250,51,0
223194,21,207,69,0
223204,13,162,64,0
223214,25,143,63,0
223224,18,131,49,0
223234,21,211,51,0
223245,17,209,43,0
223255,26,193,52,0
223265,17,186,44,0
223275,14,168,43,0
223285,20,197,41,0
223295,28,179,42,0
223305,57,173,70,0
223315,46,165,117,0
223325,54,216,110,0
223335,69,207,149,0
223345,60,173,149,0
223355,36,132,127,0
223365,34,162,104,0
223375,28,186,86,0
223385,28,179,68,0
223395,32,148,59,0
223405,16,163,60,0
223415,21,200,59,0
223425,22,221,57,0
223435,24,240,62,0
223445,16,266,71,0
223456,21,232,64,0
223466,22,204,54,0
223476,26,162,61,0
223486,16,237,61,0
223496,30,314,65,0
223506,50,358,50,0
223516,60,331,52,0
223526,70,289,52,0
223536,50,293,62,0
223546,58,283,78,0
223556,65,247,68,0
223566,47,241,70,0
223576,49,302,62,0
223586,37,266,56,0
223596,20,270,52,0
223606,27,278,57,0
223616,30,258,61,0
223626,18,255,72,0
223636,31,227,72,0
223646,34,192,67,0
223656,34,187,58,0
223667,27,218,55,0
223677,31,224,76,0
223687,30,242,69,0
223697,37,232,71,0
223707,29,210,64,0
223717,17,195,51,0
223727,15,243,55,0
223737,20,197,42,0
223747,18,186,53,0
223757,13,234,59,0
223767,22,205,85,0
223777,27,198,77,0
223787,20,151,73,0
223797,26,183,66,0
223807,30,249,83,0
223817,29,244,78,0
223827,22,243,82,0
223837,15,257,72,0
223847,28,216,90,0
223857,24,291,81,0
223867,22,294,65,0
223878,19,231,50,0
223888,20,204,58,0
223898,20,193,66,0
223908,37,219,52,0
223918,44,185,49,0
223928,48,155,54,0
223938,47,140,50,0
223948,40,208,69,0
223958,31,178,89,0
223968,51,174,76,0
223978,61,164,69,0
223988,74,241,86,0
223998,58,236,122,0
224008,49,278,105,0
224018,66,239,146,0
224028,60,186,156,0
224038,47,168,129,0
224048,37,154,93,0
224058,29,173,78,0
224068,32,259,73,0
224079,27,237,64,0
224089,28,296,54,0
224099,32,257,55,0
224109,32,219,51,0
224119,23,169,56,0
224129,32,162,57,0
224139,25,199,59,0
224149,41,238,56,0
224159,44,224,64,0
224169,31,228,79,602
224179,20,244,64,0
224189,27,221,67,0
224199,41,268,58,0
224209,46,254,45,0
224219,28,239,45,0
224229,29,221,42,0
224239,20,242,36,0
224249,33,207,50,0
224259,42,190,42,0
224269,39,201,63,0
224279,36,260,65,0
224290,25,270,57,0
224300,25,289,62,0
224310,21,235,64,0
224320,19,222,53,0
224330,26,220,61,0
224340,17,187,67,0
224350,24,172,60,0
224360,21,208,65,0
224370,26,230,65,0
224380,23,266,54,0
224390,33,241,55,0
224400,29,207,50,0
224410,28,203,49,0
224420,16,175,40,0
224430,11,168,41,0
224440,14,147,40,0
224450,17,168,42,0
224460,18,178,49,0
224470,17,166,47,0
224480,10,166,45,0
224490,17,181,42,0
224501,13,214,57,0
224511,10,232,58,0
224521,8,242,61,0
224531,11,199,58,0
224541,16,179,64,0
224551,13,159,61,0
224561,11,154,54,0
224571,16,154,53,0
224581,11,160,48,0
224591,15,189,65,0
224601,8,194,59,0
224611,7,213,46,0
224621,20,186,46,0
224631,41,215,74,0
224641,41,186,80,0
224651,33,155,86,0
224661,50,209,111,0
224671,49,187,145,0
224681,41,236,130,0
224691,37,181,94,0
224701,26,159,78,0
224712,17,125,62,0
224722,20,109,56,0
224732,10,112,47,0
224742,13,109,52,0
224752,15,188,56,0
224762,12,241,50,0
224772,8,293,52,0
224782,11,235,50,0
224792,3,191,56,0
224802,12,161,53,0
224812,15,128,60,0
224822,10,115,46,0
224832,11,100,48,0
224842,5,99,37,0
224852,11,134,44,0
224862,10,139,41,0
224872,12,148,43,0
224882,18,149,38,0
224892,15,138,38,0
224902,14,190,47,0
224912,16,181,51,0
224923,22,179,54,0
224933,15,184,50,0
224943,15,180,51,0
224953,19,169,47,0
224963,10,156,43,0
224973,14,181,50,0
224983,15,195,50,0
224993,11,164,45,0
225003,10,127,50,0
225013,14,156,50,0
225023,11,172,52,0
225033,13,216,55,0
225043,10,241,61,0
225053,5,184,51,0
225063,9,170,43,0
225073,12,126,44,0
225083,8,117,41,0
225093,9,105,43,0
225103,16,103,57,0
225113,7,93,57,0
225123,12,136,47,0
225134,7,129,47,0
225144,4,117,45,0
225154,14,138,42,0
225164,9,137,47,0
225174,12,160,57,0
225184,5,124,48,0
225194,16,126,42,0
225204,12,150,49,0
225214,10,138,46,0
225224,10,142,35,0
225234,10,174,40,0
225244,14,131,42,0
225254,12,141,39,0
225264,41,179,34,0
225274,51,198,72,0
225284,64,195,87,0
225294,75,180,112,0
225304,64,157,145,0
225314,49,169,146,0
225324,42,230,114,0
225335,29,221,85,0
225345,25,207,62,0
225355,19,173,59,0
225365,12,133,53,0
225375,8,108,50,0
225385,18,126,51,0
225395,10,125,48,0
225405,12,106,44,0
225415,14,91,40,0
225425,17,96,46,0
225435,12,137,45,0
225445,20,134,53,0
225455,10,113,47,0
225465,9,145,38,0
225475,16,123,38,0
225485,15,172,39,0
225495,18,153,43,0
225505,16,143,44,0
225515,13,114,41,0
225525,7,124,44,0
225535,15,128,45,0
225546,18,132,50,0
225556,17,149,48,0
225566,10,135,44,0
225576,5,126,39,0
225586,15,120,47,0
225596,13,116,41,0
225606,18,106,42,0
225616,6,127,37,0
225626,14,99,42,0
225636,8,147,37,0
225646,3,169,40,0
225656,14,146,38,0
225666,8,166,40,0
225676,13,170,33,0
225686,11,184,41,0
225696,8,187,36,0
225706,10,186,39,0
225716,14,162,32,0
225726,11,130,36,0
225736,12,138,37,0
225746,11,111,45,0
225757,12,94,45,0
225767,9,96,37,0
225777,15,151,46,0
225787,9,142,39,0
225797,19,193,43,0
225807,13,147,45,0
225817,15,130,40,0
225827,4,104,42,0
225837,8,110,35,0
225847,16,103,33,0
225857,9,107,38,0
225867,9,105,40,0
225877,17,100,33,0
225887,13,111,48,0
225897,19,138,58,0
225907,61,136,75,0
225917,49,133,93,0
225927,82,163,94,0
225937,77,145,131,0
225947,61,154,148,0
225957,46,153,111,0
225968,34,144,79,0
225978,21,167,68,0
225988,24,161,61,0
225998,17,132,50,0
226008,17,120,41,0
226018,13,95,44,0
226028,9,82,44,0
226038,12,79,43,0
226048,15,104,45,0
226058,8,84,42,0
226068,11,111,36,0
226078,14,100,28,0
226088,8,84,36,0
226098,13,97,43,0
226108,9,76,43,0
226118,15,73,36,0
226128,17,77,43,0
226138,15,69,39,0
226148,21,78,40,0
226158,15,76,37,0
226168,16,89,29,1001
226179,19,80,35,0
226189,16,80,38,0
226199,14,85,40,0
226209,9,74,40,0
226219,18,81,39,0
226229,15,94,39,0
226239,4,106,39,0
226249,7,106,37,0
226259,4,102,39,0
226269,9,102,35,0
226279,13,167,30,0
226289,15,143,35,0
226299,8,138,37,0
226309,6,118,44,0
226319,12,96,38,0
226329,10,99,36,0
226339,7,110,43,0
226349,9,117,36,0
226359,12,131,36,0
226369,10,112,35,0
226379,7,90,39,0
226390,14,75,40,0
226400,13,77,33,0
226410,15,74,31,0
226420,5,68,36,0
226430,15,75,31,0
226440,14,71,32,0
226450,16,69,37,0
226460,7,57,32,0
226470,10,49,41,0
226480,17,59,40,0
226490,13,61,47,0
226500,10,69,42,0
226510,7,122,46,0
226520,17,119,36,0
226530,15,130,42,0
226540,9,103,33,0
226550,7,82,38,0
226560,16,105,35,0
226570,13,140,34,0
226580,2,118,37,0
226590,6,135,31,0
226601,19,148,41,0
226611,56,175,52,0
226621,54,134,70,0
226631,70,168,90,0
226641,90,158,123,0
226651,68,137,150,0
226661,54,142,126,0
226671,36,104,86,0
226681,32,98,60,0
226691,24,77,53,0
226701,16,70,46,0
226711,19,59,50,0
226721,20,53,44,0
226731,18,53,37,0
226741,12,50,38,0
226751,14,43,36,0
226761,13,71,41,0
226771,10,86,39,0
226781,10,128,31,0
226791,13,111,31,0
226801,10,86,39,0
226812,5,78,36,0
226822,10,67,32,0
226832,11,63,33,0
226842,12,61,34,0
226852,11,65,35,0
226862,13,69,31,0
226872,13,64,35,0
226882,14,60,39,0
226892,15,54,44,0
226902,15,47,43,0
226912,10,42,47,0
226922,14,68,41,0
226932,8,65,41,0
226942,5,64,42,0
226952,8,78,35,0
226962,16,63,43,0
226972,4,54,36,0
226982,13,79,34,0
226992,10,66,36,0
227002,9,69,34,0
227012,8,86,27,0
227023,10,88,35,0
227033,9,89,38,0
227043,5,75,35,0
227053,9,80,37,0
227063,8,58,37,0
227073,5,59,30,0
227083,10,58,42,0
227093,12,51,40,0
227103,9,59,38,0
227113,6,71,34,0
227123,8,71,35,0
227133,6,62,41,0
227143,11,60,43,0
227153,8,58,39,0
227163,11,46,42,0
227173,12,49,39,0
227183,12,50,43,0
227193,15,54,46,0
227203,16,49,47,0
227213,3,55,45,0
227223,14,62,40,0
227234,9,72,39,0
227244,12,83,41,0
227254,9,68,41,0
227264,12,58,52,0
227274,13,53,39,0
227284,7,46,37,0
227294,8,52,35,0
227304,12,56,38,0
227314,7,70,43,0
227324,12,69,55,0
227334,62,74,69,0
227344,56,64,88,0
227354,78,65,94,0
227364,90,79,109,0
227374,69,72,130,0
227384,47,70,112,0
227394,35,64,79,0
227404,17,59,72,0
227414,18,61,64,0
227424,12,74,48,0
227434,9,73,48,0
227445,14,90,46,0
227455,13,72,35,0
227465,12,95,45,0
227475,11,78,43,0
227485,7,80,40,0
227495,2,71,40,0
227505,16,79,40,0
227515,11,107,40,0
227525,12,113,40,0
227535,13,100,51,0
227545,9,83,48,0
227555,8,77,40,0
227565,18,68,36,0
227575,17,90,40,0
227585,13,71,33,0
227595,16,66,44,0
227605,15,64,36,0
227615,11,71,45,0
227625,7,74,40,0
227635,12,62,37,0
227646,2,67,45,0
227656,12,68,51,0
227666,8,64,51,0
227676,5,82,43,0
227686,14,70,43,0
227696,4,60,39,0
227706,13,51,36,0
227716,10,52,41,0
227726,4,54,42,0
227736,12,48,36,0
227746,3,63,33,0
227756,10,54,37,0
227766,9,57,34,700
227776,5,68,34,0
227786,9,66,39,0
227796,12,77,38,0
227806,11,69,35,0
227816,9,72,40,0
227826,13,71,37,0
227836,10,67,35,0
227846,14,69,41,0
227857,13,92,40,0
227867,6,77,41,0
227877,9,75,41,0
227887,14,62,44,0
227897,11,61,47,0
227907,8,52,57,0
227917,6,79,50,0
227927,6,72,50,0
227937,11,69,38,0
227947,6,58,41,0
227957,16,61,35,0
227967,8,48,32,0
227977,5,51,36,0
227987,7,49,32,0
227997,12,79,40,0
228007,16,72,43,0
228017,6,77,43,0
228027,35,83,46,0
228037,68,76,59,0
228047,55,103,97,0
228057,89,97,98,0
228068,79,79,140,0
228078,51,75,138,0
228088,43,82,98,0
228098,24,79,78,0
228108,21,67,57,0
228118,21,56,47,0
228128,20,47,48,0
228138,17,46,46,0
228148,10,35,33,0
228158,15,42,41,0
228168,13,54,40,0
228178,14,65,51,0
228188,13,55,39,0
228198,6,40,44,0
228208,14,50,37,0
228218,10,82,35,0
228228,5,77,30,0
228238,16,83,38,0
228248,10,69,36,0
228258,11,56,33,0
228268,9,52,38,0
228279,23,50,42,0
228289,25,61,43,0
228299,13,53,30,0
228309,14,44,30,0
228319,19,51,33,0
228329,10,50,34,0
228339,7,55,29,0
228349,10,70,26,0
228359,9,69,33,0
228369,7,57,34,0
228379,13,54,43,0
228389,3,49,43,0
228399,9,52,46,0
228409,4,63,48,0
228419,9,48,41,0
228429,6,49,49,0
228439,4,52,46,0
228449,13,55,37,0
228459,8,46,38,0
228469,7,57,40,0
228479,12,41,39,0
228490,6,55,43,0
228500,11,54,38,0
228510,13,54,39,0
228520,6,55,44,0
228530,6,60,32,0
228540,10,53,33,0
228550,12,55,37,0
228560,20,48,40,0
228570,10,42,43,0
228580,12,53,44,0
228590,14,48,42,0
228600,7,67,62,0
228610,10,71,59,0
228620,6,59,48,0
228630,22,70,58,0
228640,9,77,55,0
228650,14,105,57,0
228660,10,84,57,0
228670,9,72,47,0
228680,9,56,44,0
228690,4,52,34,0
228701,5,55,32,0
228711,12,51,42,0
228721,9,54,35,0
228731,3,53,41,0
228741,7,51,39,0
228751,7,39,38,0
228761,23,49,40,0
228771,59,57,50,0
228781,56,53,79,0
228791,80,61,92,0
228801,83,62,113,0
228811,72,84,149,0
228821,45,86,128,0
228831,30,80,88,0
228841,22,63,66,0
228851,13,53,53,0
228861,23,51,54,0
228871,16,54,42,0
228881,12,60,51,0
228891,13,45,42,0
228901,9,35,45,0
228912,11,31,40,0
228922,18,31,48,0
228932,15,44,47,0
228942,9,59,53,0
228952,16,45,46,0
228962,9,36,40,0
228972,8,58,35,0
228982,7,81,46,0
228992,9,73,44,0
229002,12,84,48,0
229012,22,72,39,0
229022,17,56,33,0
229032,17,60,33,0
229042,17,68,39,0
229052,12,51,32,0
229062,11,57,40,0
229072,9,62,40,0
229082,9,63,37,0
229092,6,67,36,0
229102,9,55,36,0
229112,16,57,37,0
229123,8,53,35,0
229133,6,49,28,0
229143,14,47,35,0
229153,5,65,36,0
229163,15,78,37,0
229173,14,70,36,0
229183,9,56,40,0
229193,13,55,37,0
229203,15,52,39,0
229213,8,66,41,0
229223,18,77,26,0
229233,10,65,36,0
229243,12,62,35,0
229253,15,54,45,0
229263,13,62,43,0
229273,18,51,46,701
229283,10,54,43,0
229293,4,63,46,0
229303,9,55,36,0
229313,11,80,35,0
229323,13,101,35,0
229334,8,81,31,0
229344,10,69,37,0
229354,9,60,32,0
229364,9,57,34,0
229374,14,49,46,0
229384,9,52,48,0
229394,13,47,40,0
229404,8,42,35,0
229414,13,44,37,0
229424,11,50,34,0
229434,14,46,34,0
229444,4,81,43,0
229454,9,90,38,0
229464,6,105,46,0
229474,10,95,48,0
229484,13,150,47,0
229494,16,141,47,0
229504,7,156,52,0
229514,10,156,54,0
229524,14,133,54,0
229534,41,107,76,0
229545,67,88,99,0
229555,65,82,112,0
229565,91,69,117,0
229575,80,110,166,0
229585,53,115,154,0
229595,38,132,111,0
229605,25,119,83,0
229615,26,106,84,0
229625,20,139,76,0
229635,20,114,62,0
229645,13,96,59,0
229655,12,89,53,0
229665,14,94,44,0
229675,6,160,50,0
229685,6,136,48,0
229695,14,317,49,0
229705,4,300,46,0
229715,11,411,38,0
229725,14,433,43,0
229735,9,338,50,0
229745,16,336,46,0
229756,4,311,51,0
229766,9,217,51,0
229776,8,175,50,0
229786,14,148,37,0
229796,26,140,54,0
229806,25,127,53,0
229816,20,117,50,0
229826,18,109,53,0
229836,13,137,53,0
229846,14,164,55,0
229856,20,159,50,0
229866,16,135,40,0
229876,9,147,41,0
229886,14,143,46,0
229896,16,168,47,0
229906,11,168,47,0
229916,10,163,60,0
229926,7,182,48,0
229936,12,172,51,0
229946,8,237,63,0
229956,10,205,59,0
229967,12,204,53,0
229977,9,179,48,0
229987,9,189,39,0
229997,12,219,46,0
230007,6,183,41,0
230017,9,179,40,0
230027,16,167,48,0
230037,6,132,48,0
230047,5,125,45,0
230057,4,141,66,0
230067,12,183,55,0
230077,13,157,56,0
230087,10,184,55,0
230097,3,143,51,0
230107,18,163,53,0
230117,7,151,48,0
230127,4,172,58,0
230137,7,163,52,0
230147,3,131,55,0
230157,14,186,52,0
230167,9,184,50,0
230178,20,176,48,0
230188,8,156,77,0
230198,9,183,74,0
230208,10,193,61,0
230218,13,201,61,0
230228,8,279,51,0
230238,7,209,41,0
230248,9,206,56,0
230258,13,142,47,0
230268,7,120,60,0
230278,10,139,63,0
230288,50,146,71,0
230298,71,188,78,0
230308,63,222,100,0
230318,88,236,88,0
230328,81,278,141,0
230338,47,225,130,0
230348,40,218,94,0
230358,24,214,78,0
230368,20,201,59,0
230379,17,196,52,0
230389,25,212,46,0
230399,11,219,50,0
230409,10,225,51,0
230419,5,232,45,0
230429,13,224,71,0
230439,9,243,66,0
230449,13,195,51,0
230459,19,253,53,0
230469,14,326,95,0
230479,18,249,100,0
230489,16,237,89,0
230499,15,219,83,0
230509,12,201,74,0
230519,11,195,75,0
230529,7,173,68,0
230539,14,183,51,0
230549,15,173,52,0
230559,12,177,54,0
230569,16,192,47,0
230579,22,149,41,0
230590,10,129,37,0
230600,17,180,49,0
230610,9,184,54,0
230620,12,208,49,0
230630,5,193,54,0
230640,13,188,45,0
230650,16,200,45,0
230660,15,167,42,0
230670,15,177,41,0
230680,9,168,34,0
230690,4,217,33,0
230700,12,181,38,0
230710,6,159,39,0
230720,13,149,37,0
230730,12,162,33,0
230740,4,219,40,0
230750,8,207,43,0
230760,6,209,56,0
230770,15,210,61,0
230780,6,216,62,0
230790,4,221,64,0
230801,11,194,51,0
230811,15,200,52,0
230821,15,195,61,0
230831,9,170,44,0
230841,10,184,41,0
230851,13,138,51,0
230861,13,155,38,0
230871,14,169,43,0
230881,14,168,49,0
230891,12,181,45,0
230901,8,158,56,0
230911,4,202,63,0
230921,20,227,66,0
230931,14,180,72,0
230941,8,201,59,0
230951,10,211,46,0
230961,8,225,43,0
230971,8,206,49,0
230981,8,236,39,0
230991,11,239,39,0
231001,3,217,39,0
231012,10,169,54,0
231022,18,176,56,0
231032,51,189,74,0
231042,56,231,80,0
231052,82,202,78,0
231062,81,154,104,0
231072,55,156,123,0
231082,29,201,90,0
231092,23,199,77,0
231102,21,194,60,0
231112,20,151,64,0
231122,23,190,59,0
231132,9,198,52,0
231142,13,223,50,0
231152,13,199,54,0
231162,17,267,52,0
231172,12,273,58,0
231182,11,226,52,0
231192,10,217,46,0
231202,16,286,42,0
231212,7,230,55,0
231223,8,182,54,0
231233,12,189,42,0
231243,10,200,51,0
231253,5,222,42,0
231263,13,253,51,0
231273,17,235,49,0
231283,9,200,42,0
231293,14,191,47,0
231303,11,196,44,0
231313,13,183,55,0
231323,11,146,49,0
231333,11,157,60,0
231343,8,193,51,0
231353,4,235,40,0
231363,14,211,36,0
231373,6,198,32,0
231383,13,197,34,0
231393,14,182,53,0
231403,13,211,44,0
231413,11,226,53,0
231423,3,258,51,0
231434,12,241,52,0
231444,12,216,48,0
231454,3,198,44,0
231464,6,202,39,0
231474,14,202,44,0
231484,10,192,44,0
231494,12,229,36,0
231504,11,246,49,0
231514,10,167,45,0
231524,15,171,44,0
231534,11,163,36,0
231544,4,169,36,0
231554,13,180,43,0
231564,15,153,42,0
231574,11,175,51,0
231584,16,184,42,0
231594,9,151,46,0
231604,16,136,45,0
231614,15,159,48,0
231624,16,164,45,0
231635,6,175,45,0
231645,6,204,47,0
231655,5,211,43,0
231665,6,212,48,0
231675,7,197,58,0
231685,10,171,51,0
231695,15,183,52,0
231705,3,187,52,0
231715,14,163,45,0
231725,11,203,44,0
231735,11,249,37,0
231745,28,252,47,0
231755,57,231,55,0
231765,56,232,64,0
231775,81,194,62,0
231785,76,233,112,0
231795,59,206,113,0
231805,36,195,93,0
231815,29,193,79,0
231825,26,186,64,0
231835,22,227,57,0
231846,12,236,44,0
231856,12,211,35,0
231866,11,199,43,0
231876,7,219,36,0
231886,10,251,32,0
231896,9,210,42,0
231906,7,203,37,0
231916,11,244,38,0
231926,13,216,56,0
231936,14,205,53,0
231946,3,209,47,0
231956,8,210,45,0
231966,16,189,44,0
231976,14,185,43,0
231986,15,212,43,0
231996,12,242,40,0
232006,15,203,42,0
232016,16,193,35,0
232026,19,171,39,0
232036,9,187,46,0
232046,6,219,55,0
232057,14,208,61,0
232067,8,244,55,0
232077,7,228,50,0
232087,8,180,45,0
232097,16,222,46,0
232107,12,228,43,0
232117,12,210,45,0
232127,10,206,42,0
232137,13,208,42,0
232147,12,187,39,0
232157,15,229,41,0
232167,10,201,32,0
232177,4,204,33,0
232187,14,273,38,0
232197,12,233,37,0
232207,7,193,40,0
232217,12,209,48,0
232227,12,260,47,0
232237,9,219,48,0
232247,6,183,43,0
232257,9,213,48,0
232268,5,232,49,702
232278,8,210,41,0
232288,13,172,52,0
232298,7,144,44,0
232308,11,199,50,0
232318,4,194,43,0
232328,19,189,46,0
232338,13,172,42,0
232348,15,190,43,0
232358,12,177,40,0
232368,16,153,39,0
232378,21,156,45,0
232388,10,144,46,0
232398,16,156,44,0
232408,16,185,53,0
232418,9,193,68,0
232428,15,170,61,0
232438,16,179,47,0
232448,16,221,52,0
232458,19,196,67,0
232468,56,209,60,0
232479,45,199,67,0
232489,78,191,59,0
