1390529,51,107,136,1000
1390549,24,138,84,0
1390559,23,147,67,0
1390569,16,123,66,0
1390579,11,145,53,0
1390589,10,156,47,0
1390599,8,132,44,0
1390609,9,135,40,0
1390619,7,126,42,0
1390629,11,103,41,0
1390639,8,86,36,0
1390649,9,130,35,0
1390659,12,132,31,0
1390669,11,155,35,0
1390679,6,166,37,0
1390689,6,147,34,0
1390700,14,138,31,0
1390710,15,167,29,0
1390720,16,143,36,0
1390730,15,145,34,0
1390740,9,129,30,0
1390750,12,174,30,0
1390760,12,148,38,0
1390770,11,214,34,0
1390780,10,181,29,0
1390790,8,158,34,0
1390800,11,162,37,0
1390810,4,139,35,0
1390820,10,126,32,0
1390830,8,119,34,0
1390840,8,210,33,0
1390850,8,172,35,0
1390860,9,208,29,0
1390870,13,192,30,0
1390880,9,163,28,0
1390890,10,135,27,0
1390900,8,114,26,0
1390911,9,84,33,0
1390921,7,76,33,0
1390931,5,95,30,0
1390941,5,153,31,0
1390951,11,126,34,0
1390961,8,161,33,0
1390971,10,218,42,0
1390981,15,177,49,0
1390991,27,197,61,0
1391001,33,149,91,0
1391011,28,113,77,0
1391021,40,89,92,0
1391031,51,84,139,0
1391041,49,71,134,0
1391051,42,123,97,0
1391061,26,127,80,0
1391071,21,234,63,0
1391081,11,191,52,0
1391091,11,135,45,0
1391101,12,105,49,0
1391111,9,91,46,0
1391122,10,134,48,0
1391132,9,137,48,0
1391142,7,133,40,0
1391152,8,153,40,0
1391162,8,233,41,0
1391172,6,180,38,0
1391182,11,139,42,0
1391192,13,181,37,0
1391202,8,227,33,0
1391212,14,227,38,0
1391222,17,262,32,0
1391232,18,188,36,0
1391242,17,148,35,0
1391252,10,145,44,0
1391262,12,142,45,0
1391272,11,123,43,0
1391282,10,123,38,0
1391292,9,151,36,0
1391302,12,195,39,0
1391312,12,170,37,0
1391322,13,259,39,0
1391333,11,218,37,0
1391343,16,209,36,0
1391353,11,221,31,0
1391363,12,160,37,0
1391373,12,156,33,0
1391383,8,132,39,0
1391393,8,124,40,0
1391403,10,103,38,0
1391413,12,91,35,0
1391423,12,116,33,0
1391433,11,148,36,0
1391443,8,199,35,0
1391453,8,150,36,0
1391463,9,132,36,0
1391473,8,166,35,0
1391483,10,274,44,0
1391493,12,200,42,0
1391503,23,286,62,0
1391513,36,257,99,0
1391523,38,260,104,0
1391534,38,207,103,0
1391544,55,173,129,0
1391554,55,137,135,0
1391564,47,116,105,0
1391574,34,115,77,0
1391584,25,85,64,0
1391594,20,90,52,0
1391604,13,91,44,0
1391614,12,90,40,0
1391624,9,136,39,0
1391634,12,140,38,0
1391644,7,144,41,0
1391654,6,137,37,0
1391664,13,121,38,0
1391674,9,104,43,0
1391684,9,118,34,0
1391694,8,110,36,0
1391704,9,114,34,0
1391714,10,137,30,0
1391724,16,131,35,0
1391734,16,113,39,0
1391745,17,113,38,0
1391755,15,180,37,0
1391765,10,188,34,0
1391775,9,249,41,0
1391785,11,181,37,0
1391795,7,127,38,0
1391805,5,161,36,0
1391815,10,186,42,0
1391825,10,148,47,0
1391835,9,193,44,0
1391845,11,226,40,0
1391855,6,182,41,0
1391865,6,191,44,0
1391875,9,153,41,0
1391885,13,132,37,0
1391895,12,105,36,0
1391905,9,103,34,0
1391915,8,85,28,0
1391925,9,152,28,0
1391935,10,129,31,0
1391945,10,169,33,0
1391956,13,171,33,0
1391966,10,139,33,0
1391976,12,123,28,0
1391986,6,108,29,0
1391996,9,171,34,0
1392006,11,166,36,0
1392016,16,135,34,0
1392026,31,134,69,0
1392036,36,132,96,801
1392046,33,129,79,0
1392056,48,128,115,0
1392066,57,217,146,0
1392076,45,213,121,0
1392086,32,218,92,0
1392096,27,198,66,0
1392106,18,181,50,0
1392116,18,249,50,0
1392126,9,227,36,0
1392136,11,272,34,0
1392146,10,209,37,0
1392156,6,170,38,0
1392167,11,139,31,0
1392177,7,149,31,0
1392187,10,140,33,0
1392197,8,129,34,0
1392207,9,142,32,0
1392217,5,187,32,0
1392227,9,173,31,0
1392237,7,148,34,0
1392247,10,173,38,0
1392257,14,185,32,0
1392267,14,185,37,0
1392277,9,166,29,0
1392287,10,176,32,0
1392297,11,251,35,0
1392307,11,363,35,0
1392317,9,277,34,0
1392327,7,353,32,0
1392337,13,431,34,0
1392347,14,419,36,0
1392357,13,460,39,0
1392368,8,448,33,0
1392378,8,443,38,0
1392388,10,492,35,0
1392398,7,434,32,0
1392408,10,331,36,0
1392418,10,301,36,0
1392428,7,314,42,0
1392438,8,417,41,0
1392448,3,374,37,0
1392458,8,491,40,0
1392468,12,367,40,0
1392478,9,413,36,0
1392488,12,385,40,0
1392498,14,282,40,0
1392508,15,348,40,0
1392518,18,479,43,0
1392528,27,420,63,0
1392538,34,469,93,0
1392548,38,346,93,0
1392558,37,296,94,0
1392568,54,287,136,0
1392579,57,218,149,0
1392589,40,193,116,0
1392599,31,213,87,0
1392609,22,274,67,0
1392619,18,229,72,0
1392629,15,269,61,0
1392639,11,217,58,0
1392649,7,232,55,0
1392659,10,253,58,0
1392669,7,249,55,0
1392679,13,234,51,0
1392689,14,231,53,0
1392699,8,222,49,0
1392709,7,184,48,0
1392719,9,292,38,0
1392729,10,220,30,0
1392739,11,306,32,0
1392749,13,229,36,0
1392759,19,204,35,0
1392769,15,277,38,0
1392779,11,260,35,0
1392790,10,298,35,0
1392800,8,272,39,0
1392810,10,265,40,0
1392820,9,239,45,0
1392830,10,195,44,0
1392840,8,197,42,0
1392850,10,219,44,0
1392860,11,195,44,0
1392870,7,184,48,0
1392880,13,173,48,0
1392890,12,294,44,0
1392900,13,224,46,0
1392910,12,219,50,0
1392920,10,253,46,0
1392930,9,311,42,0
1392940,8,288,49,0
1392950,9,255,48,0
1392960,6,238,45,0
1392970,13,238,43,0
1392980,15,228,39,0
1392990,11,228,47,0
1393001,11,190,46,0
1393011,12,174,46,0
1393021,12,164,51,0
1393031,17,191,57,0
1393041,37,217,78,0
1393051,49,291,110,0
1393061,39,327,88,0
1393071,56,297,109,0
1393081,69,313,118,0
1393091,61,253,118,0
1393101,44,251,100,0
1393111,28,248,83,0
1393121,25,272,73,0
1393131,15,278,62,0
1393141,17,278,53,0
1393151,14,228,55,0
1393161,15,209,43,0
1393171,15,233,43,0
1393181,12,202,41,0
1393191,7,230,37,0
1393202,9,228,37,0
1393212,11,219,43,0
1393222,8,181,43,0
1393232,13,255,40,0
1393242,9,236,41,0
1393252,11,261,42,0
1393262,19,232,40,0
1393272,15,241,39,0
1393282,14,214,40,0
1393292,11,231,40,0
1393302,11,234,36,0
1393312,13,238,41,0
1393322,7,244,47,0
1393332,5,260,45,0
1393342,9,225,52,0
1393352,8,247,47,0
1393362,9,316,40,0
1393372,14,321,43,0
1393382,7,377,49,0
1393392,10,367,43,0
1393402,8,275,38,0
1393413,11,259,37,0
1393423,2,228,37,0
1393433,9,226,40,0
1393443,15,287,43,0
1393453,5,230,41,0
1393463,10,195,39,0
1393473,5,193,36,0
1393483,3,244,36,0
1393493,14,274,30,0
1393503,13,324,29,0
1393513,7,309,36,0
1393523,12,269,38,0
1393533,11,263,43,0
1393543,21,383,72,0
1393553,38,453,113,0
1393563,30,335,114,0
1393573,34,326,112,0
1393583,45,311,165,0
1393593,53,313,166,0
1393603,40,318,137,0
1393613,35,268,106,0
1393624,26,309,106,0
1393634,17,307,85,0
1393644,15,272,73,0
1393654,14,239,68,0
1393664,13,248,50,0
1393674,10,274,50,0
1393684,11,257,59,0
1393694,12,295,56,0
1393704,6,283,53,0
1393714,9,263,53,0
1393724,9,209,47,0
1393734,6,199,48,0
1393744,8,206,44,0
1393754,11,200,51,0
1393764,9,169,65,0
1393774,15,281,61,0
1393784,17,272,62,0
1393794,14,365,45,0
1393804,12,318,48,0
1393814,9,263,47,0
1393825,7,325,43,0
1393835,6,293,51,0
1393845,14,252,53,0
1393855,13,253,54,0
1393865,14,254,52,0
1393875,11,251,51,0
1393885,13,381,49,0
1393895,16,359,54,0
1393905,12,321,82,0
1393915,13,283,73,0
1393925,14,261,57,0
1393935,14,336,61,0
1393945,13,269,70,0
1393955,10,207,82,0
1393965,8,281,99,0
1393975,11,251,106,0
1393985,7,263,93,0
1393995,10,349,100,0
1394005,7,359,87,0
1394015,9,310,116,0
1394025,13,288,136,0
1394036,15,264,101,0
1394046,25,258,101,0
1394056,39,289,153,0
1394066,32,298,161,0
1394076,44,285,120,0
1394086,53,247,153,0
1394096,58,257,139,0
1394106,43,228,117,0
1394116,31,272,106,0
1394126,24,241,107,0
1394136,14,214,98,0
1394146,16,229,73,0
1394156,17,264,70,0
1394166,12,225,71,0
1394176,13,237,76,0
1394186,9,300,108,0
1394196,11,287,92,0
1394206,5,253,89,0
1394216,14,307,108,0
1394226,12,433,91,0
1394236,14,362,76,0
1394247,12,315,72,0
1394257,14,273,73,0
1394267,14,238,64,0
1394277,16,245,63,0
1394287,16,248,86,0
1394297,18,214,75,0
1394307,15,204,88,0
1394317,8,259,82,0
1394327,11,243,69,0
1394337,14,201,62,0
1394347,12,203,66,0
1394357,11,199,59,0
1394367,10,271,58,0
1394377,7,350,59,0
1394387,8,301,69,0
1394397,14,277,69,0
1394407,12,238,57,0
1394417,12,279,52,0
1394427,13,271,53,0
1394437,12,227,64,0
1394448,11,247,67,0
1394458,6,327,68,0
1394468,7,293,73,0
1394478,7,339,81,0
1394488,12,281,88,0
1394498,10,228,75,0
1394508,11,226,64,0
1394518,12,308,69,0
1394528,14,338,78,0
1394538,13,333,65,0
1394548,32,330,100,0
1394558,49,331,131,0
1394568,42,311,102,0
1394578,53,274,82,0
1394588,60,233,129,0
1394598,54,234,139,0
1394608,45,236,117,0
1394618,32,269,144,0
1394628,26,297,122,0
1394638,27,329,142,0
1394648,21,241,123,0
1394659,15,220,130,0
1394669,14,278,118,0
1394679,13,298,100,0
1394689,6,244,88,0
1394699,14,234,78,0
1394709,9,216,72,0
1394719,9,211,63,0
1394729,8,287,62,0
1394739,9,296,80,0
1394749,8,375,85,0
1394759,12,338,71,0
1394769,14,349,69,0
1394779,16,366,72,0
1394789,13,297,80,0
1394799,12,297,84,0
1394809,10,289,72,0
1394819,11,213,64,0
1394829,8,249,52,0
1394839,13,248,72,0
1394849,12,275,81,0
1394859,16,291,102,0
1394870,13,309,112,0
1394880,15,321,109,0
1394890,10,307,118,0
1394900,16,220,138,0
1394910,16,209,105,0
1394920,13,227,91,0
1394930,14,231,116,0
1394940,12,211,109,0
1394950,18,247,111,0
1394960,15,268,91,0
1394970,12,237,66,0
1394980,8,251,68,0
1394990,13,287,71,0
1395000,13,300,99,0
1395010,15,259,87,0
1395020,12,223,84,0
1395030,13,198,79,0
1395040,16,187,92,802
1395050,24,240,88,0
1395060,32,207,98,0
1395071,39,254,95,0
1395081,45,273,80,0
1395091,57,302,95,0
1395101,57,312,112,0
1395111,52,281,117,0
1395121,39,245,125,0
1395131,29,220,140,0
1395141,26,279,100,0
1395151,13,228,80,0
1395161,13,277,71,0
1395171,18,221,97,0
1395181,17,212,134,0
1395191,11,276,162,0
1395201,12,243,158,0
1395211,10,267,144,0
1395221,9,264,115,0
1395231,15,283,136,0
1395241,7,219,108,0
1395251,11,212,115,0
1395261,13,185,117,0
1395271,13,241,104,0
1395282,9,211,138,0
1395292,15,227,131,0
1395302,22,229,104,0
1395312,18,255,168,0
1395322,16,254,208,0
1395332,19,254,159,0
1395342,15,238,137,0
1395352,13,198,145,0
1395362,13,191,140,0
1395372,10,175,154,0
1395382,16,207,157,0
1395392,9,205,151,0
1395402,14,282,197,0
1395412,14,381,156,0
1395422,11,318,118,0
1395432,14,264,115,0
1395442,14,218,94,0
1395452,10,229,112,0
1395462,12,226,135,0
1395472,7,269,126,0
1395482,13,235,107,0
1395493,16,198,106,0
1395503,11,205,90,0
1395513,12,212,128,0
1395523,12,227,148,0
1395533,18,253,165,0
1395543,11,192,167,0
1395553,16,195,161,0
1395563,27,222,164,0
1395573,45,243,147,0
1395583,38,207,146,0
1395593,42,242,239,0
1395603,54,287,215,0
1395613,57,274,171,0
1395623,38,226,167,0
1395633,32,222,143,0
1395643,22,208,126,0
1395653,22,242,118,0
1395663,18,217,103,0
1395673,17,263,122,0
1395683,10,232,127,0
1395694,15,211,108,0
1395704,14,208,91,0
1395714,15,168,82,0
1395724,10,194,87,0
1395734,9,211,79,0
1395744,10,206,70,0
1395754,12,187,76,0
1395764,12,233,90,0
1395774,6,223,69,0
1395784,14,202,73,0
1395794,13,204,84,0
1395804,12,177,89,0
1395814,11,167,87,0
1395824,14,143,95,0
1395834,9,211,71,0
1395844,10,197,77,0
1395854,12,202,76,0
1395864,10,183,94,0
1395874,10,160,112,0
1395884,12,180,111,0
1395894,7,214,96,0
1395905,12,244,128,0
1395915,13,252,142,0
1395925,16,250,147,0
1395935,15,328,127,0
1395945,16,316,116,0
1395955,9,328,96,0
1395965,8,260,74,0
1395975,11,217,83,0
1395985,5,201,94,0
1395995,7,240,92,0
1396005,8,245,75,0
1396015,12,199,103,0
1396025,10,186,99,0
1396035,6,207,76,0
1396045,13,247,72,0
1396055,11,252,73,0
1396065,13,263,93,0
1396075,18,274,119,0
1396085,30,294,102,0
1396095,37,258,93,0
1396105,27,184,86,0
1396116,45,202,98,0
1396126,57,181,121,0
1396136,50,156,116,0
1396146,40,194,107,0
1396156,27,168,145,0
1396166,18,189,112,0
1396176,19,185,84,0
1396186,13,167,70,0
1396196,13,200,72,0
1396206,10,230,77,0
1396216,11,294,82,0
1396226,11,320,73,0
1396236,14,263,65,0
1396246,9,248,63,0
1396256,7,238,88,0
1396266,10,228,74,0
1396276,14,219,61,0
1396286,13,251,55,0
1396296,9,267,65,0
1396306,13,225,73,0
1396317,10,170,94,0
1396327,16,165,94,0
1396337,12,161,84,0
1396347,13,212,138,0
1396357,11,207,181,0
1396367,7,271,174,0
1396377,7,219,167,0
1396387,10,221,175,0
1396397,17,184,165,0
1396407,14,225,186,0
1396417,14,213,147,0
1396427,14,308,112,0
1396437,12,274,82,0
1396447,10,283,82,0
1396457,10,232,81,0
1396467,10,234,94,0
1396477,9,207,121,0
1396487,9,245,143,0
1396497,9,266,147,0
1396507,10,248,111,0
1396517,14,267,85,0
1396528,11,216,88,0
1396538,8,245,114,0
1396548,9,230,152,0
1396558,11,255,163,0
1396568,11,223,130,0
1396578,9,232,118,0
1396588,11,269,93,0
1396598,14,296,136,0
1396608,15,271,137,0
1396618,11,230,181,0
1396628,16,266,219,0
1396638,37,254,280,0
1396648,35,228,290,0
1396658,38,259,211,0
1396668,49,205,200,0
1396678,47,267,243,0
1396688,40,260,238,0
1396698,28,215,242,0
1396708,23,163,206,0
1396718,18,216,144,0
1396729,12,244,118,0
1396739,10,238,116,0
1396749,13,207,110,0
1396759,12,193,91,0
1396769,12,249,73,0
1396779,11,263,88,0
1396789,9,223,90,0
1396799,9,316,76,0
1396809,12,335,78,0
1396819,6,276,69,0
1396829,10,206,63,0
1396839,9,243,68,0
1396849,6,281,78,0
1396859,10,249,77,0
1396869,9,247,66,0
1396879,13,273,61,0
1396889,6,364,59,0
1396899,9,310,54,0
1396909,10,313,60,0
1396919,11,307,58,0
1396929,7,296,49,0
1396940,10,270,52,0
1396950,6,282,46,0
1396960,6,253,49,0
1396970,12,271,48,0
1396980,9,248,63,0
1396990,7,243,58,0
1397000,14,222,57,0
1397010,11,169,51,0
1397020,7,176,54,0
1397030,6,219,49,0
1397040,13,191,45,1001
1397050,13,186,47,0
1397060,12,171,46,0
1397070,11,290,45,0
1397080,10,252,41,0
1397090,11,249,42,0
1397100,9,194,65,0
1397110,6,242,61,0
1397120,10,226,54,0
1397130,13,253,61,0
1397140,11,261,59,0
1397151,10,208,56,0
1397161,13,208,45,0
1397171,15,197,40,0
1397181,9,169,42,0
1397191,7,233,48,0
1397201,7,259,46,0
1397211,9,302,36,0
1397221,14,271,38,0
1397231,12,307,33,0
1397241,33,261,65,0
1397251,42,361,111,0
1397261,32,329,108,0
1397271,42,250,127,0
1397281,52,236,150,0
1397291,49,179,137,0
1397301,44,162,103,0
1397311,30,129,76,0
1397321,24,130,67,0
1397331,21,137,53,0
1397341,19,158,48,0
1397351,10,162,41,0
1397362,10,204,43,0
1397372,11,203,39,0
1397382,9,298,32,0
1397392,11,215,36,0
1397402,7,157,34,0
1397412,8,135,42,0
1397422,12,131,40,0
1397432,12,183,35,0
1397442,9,161,38,0
1397452,6,205,49,0
1397462,8,201,52,0
1397472,12,318,43,0
1397482,12,264,42,0
1397492,12,211,40,0
1397502,12,153,39,0
1397512,12,195,30,0
1397522,13,167,35,0
1397532,11,186,34,0
1397542,12,170,36,0
1397552,7,158,35,0
1397563,7,126,39,0
1397573,7,98,37,0
1397583,10,102,35,0
1397593,6,97,35,0
1397603,6,126,31,0
1397613,11,152,27,0
1397623,9,138,30,0
1397633,7,146,28,0
1397643,5,140,33,0
1397653,10,137,40,0
1397663,6,125,37,0
1397673,7,143,39,0
1397683,10,121,34,0
1397693,5,111,27,0
1397703,12,154,27,0
1397713,10,134,28,0
1397723,10,158,30,0
1397733,8,122,34,0
1397743,11,149,34,0
1397753,11,149,41,0
1397763,8,170,39,0
1397774,10,147,38,0
1397784,11,130,34,0
1397794,12,132,38,0
1397804,11,106,40,0
1397814,11,100,38,0
1397824,9,93,37,0
1397834,12,92,39,0
1397844,8,86,36,0
1397854,10,81,35,0
1397864,15,75,37,0
1397874,13,69,35,0
1397884,26,57,57,0
1397894,31,54,114,0
1397904,26,66,99,0
1397914,34,92,116,0
1397924,47,102,142,0
1397934,51,140,132,0
1397944,38,122,100,0
1397954,30,105,79,0
1397964,21,121,64,0
1397974,17,209,60,0
1397985,17,235,48,0
1397995,14,236,42,0
1398005,14,274,36,0
1398015,10,225,38,0
1398025,10,257,32,0
1398035,7,191,34,0
1398045,9,152,34,0
1398055,6,176,34,0
1398065,5,166,32,0
1398075,3,214,31,0
1398085,7,179,29,0
1398095,9,139,31,0
1398105,6,139,33,0
1398115,8,120,30,0
1398125,14,140,41,0
1398135,13,110,38,0
1398145,9,116,34,0
1398155,9,103,32,0
1398165,13,124,33,0
1398175,16,204,32,0
1398185,9,211,36,0
1398196,13,218,28,0
1398206,9,176,30,0
1398216,11,131,28,0
1398226,10,118,26,0
1398236,11,200,32,700
1398246,6,204,29,0
1398256,9,232,36,0
1398266,8,175,30,0
1398276,13,255,33,0
1398286,12,216,34,0
1398296,10,354,32,0
1398306,7,296,28,0
1398316,7,254,34,0
1398326,7,233,31,0
1398336,11,186,41,0
1398346,10,150,40,0
1398356,15,131,44,0
1398366,9,130,36,0
1398376,10,144,32,0
1398386,9,163,44,0
1398397,8,132,41,0
1398407,10,159,39,0
1398417,13,175,34,0
1398427,10,152,36,0
1398437,7,162,37,0
1398447,9,153,29,0
1398457,9,140,26,0
1398467,5,148,36,0
1398477,6,138,36,0
1398487,12,165,34,0
1398497,25,145,57,0
1398507,36,111,117,0
1398517,31,112,103,0
1398527,40,117,121,0
1398537,51,163,146,0
1398547,52,138,136,0
1398557,41,109,108,0
1398567,31,95,83,0
1398577,18,79,64,0
1398587,18,74,58,0
1398597,17,81,49,0
1398608,17,90,50,0
1398618,12,139,47,0
1398628,10,183,53,0
1398638,7,249,42,0
1398648,13,270,39,0
1398658,10,209,38,0
1398668,9,157,33,0
1398678,10,125,36,0
1398688,10,113,37,0
1398698,13,91,35,0
1398708,12,81,38,0
1398718,12,96,34,0
1398728,14,127,42,0
1398738,15,162,45,0
1398748,16,128,45,0
1398758,8,164,40,0
1398768,11,158,40,0
1398778,11,151,38,0
1398788,13,126,38,0
1398798,9,93,38,0
1398808,6,90,34,0
1398819,12,114,36,0
1398829,7,98,38,0
1398839,8,121,40,0
1398849,9,136,43,0
1398859,7,112,39,0
1398869,7,120,33,0
1398879,11,153,33,0
1398889,9,151,30,0
1398899,12,149,33,0
1398909,11,181,33,0
1398919,10,156,38,0
1398929,8,194,33,0
1398939,11,167,40,0
1398949,12,170,39,0
1398959,12,154,46,0
1398969,11,186,42,0
1398979,11,147,41,0
1398989,10,130,37,0
1398999,9,96,38,0
1399009,12,104,35,0
1399019,12,133,34,0
1399030,9,176,38,0
1399040,10,143,35,0
1399050,8,264,45,0
1399060,12,243,48,0
1399070,6,182,43,0
1399080,4,142,40,0
1399090,7,128,35,0
1399100,14,114,38,0
1399110,27,172,57,0
1399120,36,162,97,0
1399130,30,255,92,0
1399140,40,251,108,0
1399150,57,208,125,0
1399160,56,223,116,0
1399170,44,155,98,0
1399180,31,139,72,0
1399190,24,162,59,0
1399200,17,183,49,0
1399210,15,191,51,0
1399220,8,173,47,0
1399231,11,291,49,0
1399241,13,235,48,0
1399251,10,245,46,0
1399261,11,236,47,0
1399271,6,175,36,0
1399281,7,125,42,0
1399291,7,96,40,0
1399301,6,75,34,0
1399311,10,65,41,0
1399321,10,84,44,0
1399331,9,103,40,0
1399341,10,203,42,0
1399351,8,160,37,0
1399361,10,125,42,0
1399371,12,115,43,0
1399381,10,131,45,0
1399391,9,126,44,0
1399401,7,211,40,0
1399411,8,257,36,0
1399421,7,208,38,0
1399431,6,258,43,0
1399442,10,228,48,0
1399452,12,192,44,0
1399462,9,180,40,0
1399472,13,154,43,0
1399482,11,185,40,0
1399492,8,189,35,0
1399502,6,264,40,0
1399512,11,215,34,0
1399522,9,188,39,0
1399532,9,155,35,0
1399542,7,140,34,0
1399552,10,173,33,0
1399562,9,207,42,0
1399572,7,189,44,0
1399582,7,347,37,0
1399592,10,305,33,0
1399602,5,228,38,0
1399612,10,268,38,0
1399622,7,255,38,0
1399632,10,226,38,0
1399642,11,195,39,0
1399653,10,161,32,0
1399663,9,207,36,0
1399673,8,172,35,0
1399683,13,172,34,0
1399693,9,180,33,0
1399703,10,191,36,0
1399713,10,198,35,0
1399723,8,173,36,0
1399733,18,277,42,0
1399743,27,221,81,0
1399753,33,236,128,0
1399763,29,216,103,0
1399773,41,317,151,0
1399783,49,257,169,0
1399793,50,231,141,0
1399803,38,165,104,0
1399813,26,126,75,0
1399823,22,108,65,0
1399833,13,209,58,0
1399843,11,249,49,0
1399853,9,372,44,0
1399864,12,332,46,0
1399874,14,365,51,0
1399884,9,288,45,0
1399894,12,197,35,0
1399904,10,160,34,0
1399914,13,215,45,0
1399924,4,188,48,0
1399934,7,206,40,0
1399944,9,249,39,0
1399954,8,241,38,0
1399964,9,172,38,0
1399974,6,132,38,0
1399984,13,116,42,701
1399994,14,130,41,0
1400004,12,153,37,0
1400014,8,230,33,0
1400024,8,240,34,0
1400034,12,166,33,0
1400044,7,145,42,0
1400054,7,205,43,0
1400065,8,230,42,0
1400075,12,287,36,0
1400085,10,314,40,0
1400095,8,276,39,0
1400105,8,235,46,0
1400115,9,248,42,0
1400125,12,256,43,0
1400135,6,267,41,0
1400145,7,238,44,0
1400155,10,231,48,0
1400165,4,327,46,0
1400175,13,256,47,0
1400185,6,312,44,0
1400195,10,330,48,0
1400205,9,271,44,0
1400215,9,297,48,0
1400225,11,477,41,0
1400235,7,393,42,0
1400245,7,294,46,0
1400255,11,299,49,0
1400265,12,284,43,0
1400276,10,245,42,0
1400286,7,302,40,0
1400296,9,289,42,0
1400306,8,243,37,0
1400316,14,241,42,0
1400326,14,264,51,0
1400336,8,223,42,0
1400346,16,300,48,0
1400356,26,287,79,0
1400366,29,315,113,0
1400376,28,277,97,0
1400386,38,336,139,0
1400396,49,317,148,0
1400406,46,271,120,0
1400416,37,212,87,0
1400426,24,189,62,0
1400436,20,238,56,0
1400446,15,246,67,0
1400456,17,216,60,0
1400466,15,209,49,0
1400476,12,204,49,0
1400487,11,231,52,0
1400497,14,203,52,0
1400507,13,171,49,0
1400517,13,239,50,0
1400527,8,262,38,0
1400537,11,368,42,0
1400547,11,286,47,0
1400557,7,314,44,0
1400567,15,301,43,0
1400577,15,267,48,0
1400587,17,242,45,0
1400597,16,245,49,0
1400607,19,338,55,0
1400617,12,311,47,0
1400627,12,278,50,0
1400637,14,357,57,0
1400647,12,286,50,0
1400657,10,286,43,0
1400667,7,251,44,0
1400677,7,283,50,0
1400688,12,219,57,0
1400698,9,233,56,0
1400708,12,267,45,0
1400718,12,245,45,0
1400728,9,210,38,0
1400738,6,232,41,0
1400748,6,246,37,0
1400758,7,226,39,0
1400768,13,213,33,0
1400778,6,258,46,0
1400788,11,278,44,0
1400798,7,301,51,0
1400808,11,301,53,0
1400818,10,284,67,0
1400828,13,248,60,0
1400838,11,245,54,0
1400848,9,284,48,0
1400858,15,299,43,0
1400868,9,304,43,0
1400878,12,367,43,0
1400888,9,319,50,0
1400899,13,309,50,0
1400909,6,330,43,0
1400919,8,436,52,0
1400929,8,374,46,0
1400939,10,299,51,0
1400949,12,252,46,0
1400959,29,247,83,0
1400969,34,249,121,0
1400979,29,303,114,0
1400989,43,276,125,0
1400999,57,245,135,0
1401009,54,217,132,0
1401019,41,289,109,0
1401029,31,333,99,0
1401039,26,308,84,0
1401049,21,282,67,0
1401059,15,267,59,0
1401069,11,254,55,0
1401079,11,268,61,0
1401089,13,260,62,0
1401099,13,308,65,0
1401110,11,338,55,0
1401120,13,287,52,0
1401130,11,312,50,0
1401140,10,235,49,0
1401150,9,244,55,0
1401160,8,285,53,0
1401170,11,316,47,0
1401180,14,313,39,0
1401190,15,267,49,0
1401200,20,274,54,0
1401210,16,298,56,0
1401220,16,308,54,0
1401230,11,252,59,0
1401240,10,257,50,0
1401250,12,342,48,0
1401260,12,305,47,0
1401270,14,274,45,0
1401280,9,311,44,0
1401290,9,255,50,0
1401300,12,279,50,0
1401310,12,341,51,0
1401321,9,338,44,0
1401331,12,317,39,0
1401341,10,284,41,0
1401351,9,302,41,0
1401361,8,312,49,0
1401371,10,336,42,0
1401381,11,306,44,0
1401391,9,356,44,0
1401401,13,368,48,0
1401411,11,327,40,0
1401421,16,276,56,0
1401431,16,298,53,0
1401441,9,369,47,0
1401451,15,311,51,0
1401461,13,277,50,0
1401471,11,267,50,0
1401481,7,320,45,0
1401491,10,312,41,0
1401501,9,367,41,0
1401511,14,357,43,0
1401522,15,323,50,0
1401532,13,336,52,0
1401542,14,250,42,0
1401552,12,248,60,0
1401562,26,254,69,0
1401572,37,343,100,0
1401582,26,316,87,0
1401592,35,310,106,0
1401602,56,285,127,0
1401612,53,263,125,0
1401622,41,285,102,0
1401632,30,235,80,0
1401642,23,282,63,0
1401652,19,333,61,0
1401662,16,296,52,0
1401672,15,293,50,0
1401682,16,343,46,0
1401692,14,305,45,0
1401702,14,349,61,0
1401712,14,365,57,0
1401722,13,281,52,0
1401733,14,278,48,0
1401743,12,250,49,0
1401753,15,306,62,0
1401763,14,267,53,0
1401773,13,276,41,0
1401783,13,291,39,0
1401793,12,276,44,0
1401803,12,362,56,0
1401813,16,353,58,0
1401823,14,315,50,0
1401833,10,285,42,0
1401843,12,327,43,0
1401853,14,360,44,0
1401863,8,334,37,0
1401873,8,285,42,0
1401883,9,260,47,0
1401893,11,222,41,0
1401903,8,278,34,0
1401913,8,344,44,0
1401923,9,310,43,0
1401933,7,259,42,0
1401944,12,319,38,0
1401954,9,310,46,0
1401964,6,265,47,0
1401974,6,314,45,0
1401984,7,259,44,0
1401994,10,298,46,0
1402004,11,271,49,0
1402014,13,237,49,0
1402024,16,299,59,0
1402034,15,275,61,0
1402044,13,284,78,0
1402054,14,319,64,0
1402064,12,273,54,0
1402074,12,271,55,0
1402084,9,226,61,0
1402094,9,264,50,0
1402104,5,316,59,0
1402114,12,253,58,0
1402124,8,343,58,0
1402134,7,298,64,0
1402144,12,279,60,0
1402155,7,359,55,0
1402165,14,392,57,0
1402175,22,422,89,0
1402185,28,380,163,0
1402195,24,397,128,0
1402205,40,316,155,0
1402215,44,320,160,0
1402225,40,277,127,0
1402235,27,246,114,0
1402245,19,257,84,0
1402255,19,248,68,0
1402265,18,343,67,0
1402275,13,320,64,0
1402285,13,326,55,0
1402295,15,280,63,0
1402305,13,333,82,0
1402315,10,261,91,0
1402325,9,272,71,0
1402335,8,225,70,0
1402345,8,348,57,0
1402356,7,348,46,0
1402366,8,347,53,0
1402376,11,394,53,0
1402386,11,329,51,0
1402396,10,283,55,0
1402406,14,305,91,0
1402416,15,270,217,0
1402426,16,281,291,0
1402436,15,344,236,0
1402446,20,319,207,0
1402456,18,298,167,0
1402466,14,283,166,0
1402476,10,269,139,0
1402486,13,326,115,0
1402496,11,383,138,0
1402506,17,350,151,0
1402516,13,387,123,0
1402526,13,358,108,0
1402536,15,387,112,0
1402546,12,310,85,0
1402556,11,299,102,0
1402567,10,280,85,0
1402577,15,291,112,0
1402587,14,231,131,0
1402597,12,253,125,0
1402607,17,284,119,0
1402617,15,350,113,0
1402627,13,402,100,0
1402637,11,359,88,0
1402647,14,347,136,0
1402657,15,327,151,0
1402667,20,347,165,0
1402677,15,285,178,0
1402687,13,336,150,0
1402697,13,298,116,0
1402707,13,340,100,0
1402717,14,348,112,0
1402727,12,362,101,0
1402737,14,331,91,0
1402747,14,270,73,0
1402757,17,272,107,0
1402768,33,274,147,0
1402778,34,307,160,0
1402788,34,335,134,0
1402798,45,323,167,0
1402808,55,519,136,0
1402818,51,516,108,0
1402828,38,431,89,0
1402838,31,360,88,0
1402848,21,313,115,0
1402858,15,290,107,0
1402868,18,254,121,0
1402878,17,243,107,0
1402888,13,308,117,0
1402898,11,359,121,0
1402908,14,366,111,0
1402918,12,311,97,0
1402928,14,365,92,0
1402938,12,374,85,0
1402948,13,339,79,0
1402958,8,324,83,0
1402968,11,303,135,0
1402979,15,333,143,0
1402989,18,360,131,702
1402999,15,364,137,0
1403009,25,348,130,0
1403019,20,386,143,0
1403029,17,368,199,0
1403039,19,312,185,0
1403049,14,320,157,0
1403059,11,343,130,0
1403069,14,311,114,0
1403079,15,345,95,0
1403089,18,270,98,0
1403099,12,261,92,0
1403109,15,372,89,0
1403119,15,342,76,0
1403129,13,343,77,0
1403139,12,268,67,0
1403149,10,234,67,0
1403159,10,299,77,0
1403169,10,260,74,0
1403180,11,322,75,0
1403190,8,306,89,0
1403200,9,245,104,0
1403210,9,252,88,0
1403220,7,254,88,0
1403230,10,275,93,0
1403240,3,297,118,0
1403250,8,254,125,0
1403260,7,247,132,0
1403270,8,215,106,0
1403280,8,285,93,0
1403290,8,251,90,0
1403300,12,303,101,0
1403310,13,329,82,0
1403320,9,295,92,0
1403330,11,357,109,0
1403340,14,325,84,0
1403350,30,337,79,0
1403360,41,285,149,0
1403370,32,264,183,0
1403380,33,253,153,0
1403391,53,265,158,0
1403401,58,288,119,0
1403411,44,258,103,0
1403421,28,295,104,0
1403431,19,255,113,0
1403441,14,293,112,0
1403451,15,319,145,0
1403461,14,328,133,0
1403471,14,317,99,0
1403481,11,298,119,0
1403491,11,308,172,0
1403501,7,271,192,0
1403511,10,262,197,0
1403521,12,246,186,0
1403531,14,272,169,0
1403541,12,343,159,0
1403551,12,383,161,0
1403561,11,326,164,0
1403571,15,271,165,0
1403581,18,300,133,0
1403591,15,320,107,0
1403602,13,332,84,0
1403612,14,261,82,0
1403622,15,259,75,0
1403632,12,336,62,0
1403642,9,357,72,0
1403652,11,368,92,0
1403662,9,282,83,0
1403672,6,245,62,0
1403682,7,196,60,0
1403692,9,255,54,0
1403702,10,209,57,0
1403712,7,197,61,0
1403722,11,229,70,0
1403732,10,255,66,0
1403742,7,228,62,0
1403752,12,192,62,0
1403762,14,212,51,0
1403772,9,184,57,0
1403782,13,159,57,0
1403792,13,264,50,0
1403803,12,303,50,0
1403813,13,370,45,0
1403823,12,294,45,0
1403833,12,232,48,0
1403843,14,177,47,0
1403853,10,144,47,0
1403863,9,261,47,0
1403873,9,292,52,0
1403883,8,394,67,0
1403893,8,322,60,0
1403903,12,262,63,0
1403913,13,205,50,0
1403923,12,229,44,0
1403933,18,193,49,0
1403943,41,190,92,0
1403953,39,242,136,0
1403963,31,243,114,0
1403973,48,249,145,0
1403983,56,266,167,0
1403993,48,249,134,0
1404003,38,272,97,0
1404014,26,249,75,0
1404024,24,237,56,0
1404034,18,281,50,0
1404044,11,244,43,0
1404054,17,267,44,0
1404064,11,267,42,0
1404074,16,265,45,0
1404084,15,196,43,0
1404094,12,181,44,0
1404104,8,136,40,0
1404114,8,213,44,0
1404124,11,193,44,0
1404134,10,285,38,0
1404144,6,283,33,0
1404154,11,294,39,0
1404164,12,301,31,0
1404174,13,353,34,0
1404184,10,331,39,0
1404194,13,280,35,0
1404204,12,287,48,0
1404214,12,271,48,0
1404225,10,248,43,0
1404235,11,265,43,0
1404245,8,191,41,0
1404255,11,205,36,0
1404265,9,173,42,0
1404275,10,138,41,0
1404285,7,224,43,0
1404295,10,229,38,0
1404305,10,224,43,0
1404315,11,260,38,0
1404325,7,210,46,0
1404335,9,168,45,0
1404345,9,133,35,0
1404355,15,177,32,0
1404365,11,247,34,0
1404375,10,283,33,0
1404385,12,239,44,0
1404395,13,225,47,0
1404405,12,198,40,0
1404415,13,178,45,0
1404425,11,173,35,0
1404436,10,178,38,0
1404446,14,171,40,0
1404456,8,256,37,0
1404466,11,240,35,0
1404476,10,192,45,0
1404486,9,195,47,0
1404496,13,222,41,0
1404506,8,191,35,0
1404516,14,220,44,0
1404526,28,200,70,0
1404536,38,240,89,0
1404546,27,283,79,0
1404556,42,260,106,0
1404566,51,204,137,0
1404576,46,195,128,0
1404586,38,163,95,0
1404596,31,165,72,0
1404606,21,171,64,0
1404616,15,179,51,0
1404626,12,141,48,0
1404637,13,215,42,0
1404647,15,159,46,0
1404657,14,183,46,0
1404667,8,142,45,0
1404677,9,159,43,0
1404687,13,158,47,0
1404697,8,234,46,0
1404707,10,182,49,0
1404717,10,173,42,0
1404727,6,187,40,0
1404737,10,158,40,0
1404747,10,141,38,0
1404757,9,132,38,0
1404767,14,114,57,0
1404777,13,145,51,0
1404787,8,151,49,0
1404797,5,157,48,0
1404807,11,122,46,0
1404817,9,128,52,0
1404827,4,118,45,0
1404837,9,122,43,0
1404848,7,116,48,0
1404858,6,133,38,0
1404868,9,210,32,0
1404878,11,222,36,0
1404888,10,251,36,0
1404898,10,190,35,0
1404908,8,158,43,0
1404918,11,120,48,0
1404928,11,157,38,0
1404938,7,136,47,0
1404948,8,147,47,0
1404958,8,146,40,0
1404968,12,148,42,0
1404978,11,156,56,0
1404988,8,130,48,1001
1404998,11,124,42,0
1405008,7,188,47,0
1405018,7,196,47,0
1405028,8,184,41,0
1405038,7,165,43,0
1405048,6,198,45,0
1405059,6,228,47,0
1405069,8,209,44,0
1405079,29,187,58,0
1405089,41,162,107,0
1405099,28,134,88,0
1405109,45,163,105,0
1405119,57,173,125,0
1405129,50,134,128,0
1405139,40,109,97,0
1405149,27,94,74,0
1405159,22,88,70,0
1405169,18,75,60,0
1405179,11,112,50,0
1405189,12,118,56,0
1405199,9,188,44,0
1405209,9,165,40,0
1405219,8,125,44,0
1405229,5,121,36,0
1405239,8,110,39,0
1405249,5,95,41,0
1405259,12,104,49,0
1405270,11,121,52,0
1405280,7,138,51,0
1405290,8,135,47,0
1405300,10,179,58,0
1405310,17,164,50,0
1405320,14,222,45,0
1405330,9,196,44,0
1405340,14,146,43,0
1405350,13,117,37,0
1405360,10,128,39,0
1405370,10,92,45,0
1405380,6,82,40,0
1405390,4,110,52,0
1405400,7,108,54,0
1405410,9,148,50,0
1405420,11,138,42,0
1405430,9,161,48,0
1405440,7,149,47,0
1405450,9,157,44,0
1405460,12,150,49,0
1405471,5,123,43,0
1405481,12,153,56,0
1405491,10,134,53,0
1405501,8,150,48,0
1405511,13,131,43,0
1405521,11,111,45,0
1405531,10,91,44,0
1405541,12,112,48,0
1405551,9,127,58,0
1405561,6,200,50,0
1405571,8,202,48,0
1405581,9,238,55,0
1405591,8,216,50,0
1405601,12,177,54,0
1405611,10,136,53,0
1405621,10,164,50,0
1405631,19,122,43,0
1405641,38,159,79,0
1405651,45,124,133,0
1405661,36,138,113,0
1405671,46,148,120,0
1405682,62,163,135,0
1405692,50,132,126,0
1405702,38,119,97,0
1405712,25,160,74,0
1405722,22,148,56,0
1405732,17,163,60,0
1405742,18,118,51,0
1405752,12,142,47,0
1405762,14,153,49,0
1405772,8,187,39,0
1405782,11,226,35,0
1405792,6,184,46,0
1405802,7,207,40,0
1405812,7,158,34,0
1405822,10,123,33,0
1405832,10,109,35,0
1405842,7,136,37,0
1405852,9,134,32,0
1405862,15,164,33,0
1405872,11,176,32,0
1405882,11,187,30,0
1405893,15,211,29,0
1405903,14,220,31,0
1405913,9,220,25,0
1405923,8,176,36,0
1405933,10,165,39,0
1405943,7,131,36,0
1405953,8,116,30,0
1405963,5,112,28,0
1405973,7,152,26,0
1405983,4,120,33,0
1405993,10,145,26,0
1406003,12,142,37,0
1406013,8,146,41,0
1406023,9,141,44,0
1406033,13,214,43,0
1406043,9,189,42,0
1406053,6,183,39,0
1406063,11,132,44,700
1406073,7,119,36,0
1406083,10,122,41,0
1406094,8,136,42,0
1406104,13,192,36,0
1406114,13,176,43,0
1406124,6,164,46,0
1406134,14,128,41,0
1406144,11,99,41,0
1406154,12,131,42,0
1406164,10,137,36,0
1406174,11,128,34,0
1406184,13,107,38,0
1406194,33,102,66,0
1406204,37,103,93,0
1406214,28,132,84,0
1406224,47,182,107,0
1406234,53,142,129,0
1406244,45,115,111,0
1406254,34,91,87,0
1406264,28,79,72,0
1406274,19,95,61,0
1406284,11,126,52,0
1406294,12,107,41,0
1406305,12,99,41,0
1406315,10,81,33,0
1406325,10,74,39,0
1406335,10,62,43,0
1406345,9,67,32,0
1406355,9,69,30,0
1406365,12,79,33,0
1406375,8,90,31,0
1406385,10,118,38,0
1406395,8,121,38,0
1406405,15,165,35,0
1406415,14,151,36,0
1406425,19,158,30,0
1406435,17,140,36,0
1406445,9,148,34,0
1406455,8,185,38,0
1406465,9,181,37,0
1406475,9,165,41,0
1406485,12,171,41,0
1406495,9,141,42,0
1406505,10,119,45,0
1406516,12,108,44,0
1406526,7,88,46,0
1406536,11,90,43,0
1406546,8,84,36,0
1406556,10,130,37,0
1406566,9,143,40,0
1406576,13,188,33,0
1406586,7,174,41,0
1406596,7,130,39,0
1406606,11,160,36,0
1406616,11,153,40,0
1406626,5,143,39,0
1406636,5,108,40,0
1406646,5,104,39,0
1406656,7,127,36,0
1406666,5,131,33,0
1406676,9,190,34,0
1406686,7,193,40,0
1406696,8,254,36,0
1406706,7,204,36,0
1406716,18,171,50,0
1406727,30,174,82,0
1406737,28,211,112,0
1406747,36,246,93,0
1406757,46,239,119,0
1406767,53,256,124,0
1406777,44,266,107,0
1406787,35,331,84,0
1406797,19,248,72,0
1406807,18,202,56,0
1406817,15,181,49,0
1406827,12,148,41,0
1406837,19,127,35,0
1406847,13,221,45,0
1406857,8,204,43,0
1406867,13,212,42,0
1406877,9,176,49,0
1406887,6,257,47,0
1406897,10,217,46,0
1406907,14,205,44,0
1406917,6,174,40,0
1406928,11,149,42,0
1406938,15,205,40,0
1406948,21,203,43,0
1406958,15,242,63,0
1406968,15,194,62,0
1406978,14,219,52,0
1406988,12,244,48,0
1406998,12,229,43,0
1407008,8,186,39,0
1407018,11,168,35,0
1407028,9,171,36,0
1407038,11,145,49,0
1407048,8,182,58,0
1407058,12,174,50,0
1407068,12,142,43,0
1407078,11,226,40,0
1407088,13,231,44,0
1407098,17,231,42,0
1407108,12,230,49,0
1407118,12,252,48,0
1407128,14,267,50,0
1407139,12,226,46,0
1407149,11,174,52,0
1407159,11,256,43,0
1407169,10,235,44,0
1407179,7,242,43,0
1407189,9,194,39,0
1407199,6,292,36,0
1407209,11,230,42,0
1407219,7,214,41,0
1407229,7,169,40,0
1407239,10,173,35,0
1407249,11,203,43,0
1407259,27,266,69,0
1407269,39,284,116,0
1407279,28,278,95,0
1407289,42,195,115,0
1407299,53,143,145,0
1407309,51,118,137,0
1407319,39,117,108,0
1407329,29,123,80,0
1407339,17,205,81,0
1407350,12,265,63,0
1407360,14,306,55,0
1407370,9,304,46,0
1407380,12,284,56,0
1407390,9,219,49,0
1407400,15,196,47,0
1407410,7,165,47,0
1407420,8,131,43,0
1407430,10,98,43,0
1407440,11,83,49,0
1407450,11,171,42,0
1407460,10,171,38,0
1407470,9,201,35,0
1407480,12,188,35,0
1407490,13,162,31,0
1407500,16,183,38,0
1407510,14,186,37,0
1407520,13,169,37,0
1407530,10,201,42,0
1407540,16,182,44,0
1407551,15,203,44,0
1407561,13,183,51,0
1407571,8,174,49,701
1407581,8,145,52,0
1407591,9,125,48,0
1407601,10,178,52,0
1407611,5,284,55,0
1407621,5,243,43,0
1407631,8,170,45,0
1407641,14,202,41,0
1407651,11,227,39,0
1407661,10,170,45,0
1407671,7,178,38,0
1407681,5,171,41,0
1407691,13,261,41,0
1407701,13,304,39,0
1407711,9,265,52,0
1407721,8,288,47,0
1407731,8,220,45,0
1407741,7,320,46,0
1407751,11,284,48,0
1407762,13,341,42,0
1407772,14,324,46,0
1407782,15,311,49,0
1407792,28,251,47,0
1407802,38,246,101,0
1407812,32,292,98,0
1407822,42,268,89,0
1407832,50,229,122,0
1407842,47,257,117,0
1407852,40,297,97,0
1407862,24,269,79,0
1407872,17,244,65,0
1407882,14,258,49,0
1407892,13,270,45,0
1407902,13,223,43,0
1407912,12,240,46,0
1407922,12,193,47,0
1407932,11,253,46,0
1407942,11,217,41,0
1407952,8,269,41,0
1407962,11,253,41,0
1407973,10,244,40,0
1407983,11,205,47,0
1407993,4,168,53,0
1408003,10,128,49,0
1408013,12,134,44,0
1408023,9,107,48,0
1408033,12,210,55,0
1408043,10,216,45,0
1408053,8,282,47,0
1408063,6,271,41,0
1408073,12,214,50,0
1408083,9,209,45,0
1408093,6,290,44,0
1408103,8,279,44,0
1408113,11,253,46,0
1408123,11,253,50,0
1408133,7,272,48,0
1408143,7,254,44,0
1408153,14,257,41,0
1408163,13,253,50,0
1408173,10,260,48,0
1408184,7,222,51,0
1408194,10,193,45,0
1408204,14,260,40,0
1408214,8,222,35,0
1408224,13,246,37,0
1408234,11,314,35,0
1408244,7,261,38,0
1408254,14,366,48,0
1408264,11,316,46,0
1408274,10,241,48,0
1408284,10,198,54,0
1408294,10,205,51,0
1408304,12,205,39,0
1408314,8,181,41,0
1408324,18,228,37,0
1408334,32,210,63,0
1408344,36,198,101,0
1408354,29,246,92,0
1408364,44,286,137,0
1408374,53,305,148,0
1408385,44,296,111,0
1408395,31,300,87,0
1408405,22,273,71,0
1408415,18,264,54,0
1408425,14,240,51,0
1408435,13,285,52,0
1408445,11,227,44,0
1408455,11,213,50,0
1408465,9,274,50,0
1408475,12,271,42,0
1408485,7,234,41,0
1408495,12,217,44,0
1408505,9,201,47,0
1408515,11,319,45,0
1408525,6,286,43,0
1408535,7,235,48,0
1408545,9,293,44,0
1408555,11,251,48,0
1408565,10,276,48,0
1408575,14,245,45,0
1408585,17,228,54,0
1408596,10,269,51,0
1408606,11,261,47,0
1408616,13,254,51,0
1408626,12,281,49,0
1408636,11,398,56,0
1408646,13,416,47,0
1408656,9,356,51,0
1408666,10,426,46,0
1408676,8,363,46,0
1408686,8,306,48,0
1408696,12,264,49,0
1408706,9,259,58,0
1408716,9,231,45,0
1408726,12,238,50,0
1408736,13,230,58,0
1408746,8,271,45,0
1408756,5,261,43,0
1408766,10,343,41,0
1408776,11,294,46,0
1408786,7,318,53,0
1408796,9,277,51,0
1408807,6,279,37,0
1408817,7,295,41,0
1408827,8,354,40,0
1408837,12,291,49,0
1408847,10,297,51,0
1408857,15,321,42,0
1408867,28,307,51,0
1408877,35,268,99,0
1408887,26,281,89,0
1408897,39,307,105,0
1408907,51,337,123,0
1408917,44,310,116,0
1408927,38,270,91,0
1408937,26,350,78,0
1408947,21,372,66,0
1408957,15,333,67,0
1408967,12,325,64,0
1408977,13,283,56,0
1408987,9,412,51,0
1408997,13,428,46,0
1409007,9,425,43,0
1409018,9,427,40,0
1409028,10,338,40,0
1409038,10,387,46,0
1409048,6,331,41,0
1409058,6,279,39,0
1409068,7,251,48,0
1409078,13,253,49,0
1409088,12,207,53,0
1409098,9,232,55,0
1409108,14,220,49,0
1409118,15,294,47,0
1409128,14,279,47,0
1409138,10,333,54,0
1409148,7,285,51,0
1409158,7,249,54,0
1409168,13,188,67,0
1409178,6,244,61,0
1409188,10,187,51,0
1409198,9,278,44,0
1409208,7,271,47,0
1409219,5,274,47,0
1409229,7,280,45,0
1409239,11,271,55,0
1409249,9,236,49,0
1409259,6,259,53,0
1409269,9,247,44,0
1409279,12,288,45,0
1409289,12,282,44,0
1409299,13,245,46,0
1409309,10,236,50,0
1409319,9,273,49,0
1409329,12,255,59,0
1409339,9,241,65,0
1409349,15,260,60,0
1409359,13,225,59,0
1409369,13,245,49,0
1409379,11,249,52,0
1409389,17,381,63,0
1409399,25,361,76,0
1409409,42,287,88,0
1409419,28,367,87,0
1409430,45,329,84,0
1409440,54,284,119,0
1409450,51,291,118,0
1409460,36,296,95,0
1409470,23,367,85,0
1409480,24,347,75,0
1409490,25,309,79,0
1409500,24,360,106,0
1409510,19,358,96,0
1409520,20,312,85,0
1409530,18,401,75,0
1409540,12,390,95,0
1409550,18,374,82,0
1409560,13,340,74,0
1409570,11,342,68,0
1409580,11,393,79,0
1409590,11,323,78,0
1409600,9,302,72,0
1409610,16,334,93,0
1409620,20,290,84,0
1409630,16,352,110,0
1409641,8,406,110,0
1409651,11,315,97,0
1409661,14,316,74,0
1409671,13,310,71,0
1409681,13,279,67,0
1409691,13,279,78,0
1409701,7,306,76,0
1409711,9,279,71,0
1409721,9,264,83,0
1409731,11,347,111,0
1409741,10,304,245,0
1409751,17,281,337,0
1409761,13,243,371,0
1409771,8,246,279,0
1409781,13,288,197,0
1409791,18,275,220,0
1409801,15,285,187,0
1409811,18,267,148,0
1409821,16,276,168,0
1409831,12,300,150,0
1409842,14,242,122,0
1409852,13,328,116,0
1409862,18,343,139,0
1409872,12,304,113,0
1409882,16,289,125,0
1409892,18,297,162,0
1409902,18,306,144,0
1409912,19,317,142,0
1409922,25,275,170,0
1409932,18,240,134,0
1409942,30,248,124,0
1409952,40,250,123,0
1409962,36,238,136,0
1409972,37,238,106,0
1409982,54,254,95,0
1409992,59,241,87,0
1410002,43,213,109,0
1410012,28,258,96,0
1410022,21,230,97,0
1410032,17,290,81,0
1410042,17,301,67,0
1410053,11,284,78,0
1410063,12,234,69,0
1410073,15,274,70,0
1410083,12,281,72,0
1410093,14,303,71,0
1410103,14,271,99,0
1410113,17,280,86,0
1410123,12,269,73,0
1410133,20,283,121,0
1410143,17,327,120,0
1410153,13,311,149,0
1410163,16,328,115,0
1410173,22,339,100,0
1410183,20,342,88,0
1410193,16,339,86,0
1410203,9,399,74,0
1410213,13,384,74,0
1410223,14,345,108,0
1410233,15,278,106,0
1410243,12,279,90,0
1410253,16,351,74,0
1410264,19,296,82,0
1410274,17,343,89,0
1410284,12,366,90,0
1410294,11,368,93,0
1410304,7,350,85,0
1410314,11,326,76,0
1410324,14,376,81,0
1410334,13,411,73,0
1410344,14,364,73,0
1410354,8,298,86,0
1410364,15,274,103,0
1410374,9,328,89,0
1410384,7,296,112,0
1410394,10,254,92,0
1410404,10,285,109,0
1410414,18,264,127,0
1410424,13,305,113,0
1410434,16,309,111,0
1410444,12,358,119,0
1410454,12,341,113,0
1410465,10,315,111,0
1410475,15,329,113,0
1410485,15,277,103,0
1410495,12,251,93,0
1410505,21,247,86,0
1410515,34,240,98,0
1410525,31,228,110,0
1410535,32,364,107,0
1410545,42,334,138,0
1410555,47,287,122,0
1410565,41,279,111,702
1410575,31,242,108,0
1410585,24,248,106,0
1410595,25,272,90,0
1410605,15,348,108,0
1410615,19,406,113,0
1410625,14,372,90,0
1410635,12,437,81,0
1410645,15,367,80,0
1410655,9,279,87,0
1410665,9,294,125,0
1410676,11,289,109,0
1410686,7,326,103,0
1410696,10,301,83,0
1410706,8,277,78,0
1410716,10,237,67,0
1410726,12,226,91,0
1410736,15,208,90,0
1410746,21,231,90,0
1410756,17,231,83,0
1410766,17,197,98,0
1410776,12,331,112,0
1410786,13,289,102,0
1410796,10,268,90,0
1410806,10,295,87,0
1410816,15,371,99,0
1410826,14,348,116,0
1410836,14,291,90,0
1410846,12,299,83,0
1410856,15,312,79,0
1410866,11,297,71,0
1410876,12,316,64,0
1410887,12,334,54,0
1410897,13,300,61,0
1410907,9,261,61,0
1410917,16,228,53,0
1410927,19,191,67,0
1410937,15,218,73,0
1410947,23,273,71,0
1410957,22,291,76,0
1410967,16,287,62,0
1410977,17,279,60,0
1410987,9,353,74,0
1410997,12,285,81,0
1411007,11,300,73,0
1411017,16,291,86,0
1411027,12,278,92,0
1411037,14,222,74,0
1411047,15,236,71,0
1411057,14,190,67,0
1411067,17,209,69,0
1411077,25,264,72,0
1411088,23,238,105,0
1411098,24,255,113,0
1411108,32,292,137,0
1411118,43,334,201,0
1411128,44,334,195,0
1411138,29,291,166,0
1411148,21,236,122,0
1411158,19,221,107,0
1411168,17,246,86,0
1411178,16,294,77,0
1411188,14,223,83,0
1411198,16,249,102,0
1411208,10,245,84,0
1411218,12,244,65,0
1411228,9,237,65,0
1411238,8,266,68,0
1411248,7,222,75,0
1411258,8,249,109,0
1411268,15,272,97,0
1411278,15,243,82,0
1411288,13,296,80,0
1411299,15,343,138,0
1411309,10,291,232,0
1411319,10,280,308,0
1411329,10,269,324,0
1411339,8,266,233,0
1411349,9,298,205,0
1411359,9,383,167,0
1411369,11,375,207,0
1411379,10,375,217,0
1411389,13,279,218,0
1411399,15,279,208,0
1411409,11,257,194,0
1411419,14,263,192,0
1411429,12,271,173,0
1411439,8,221,179,0
1411449,12,270,166,0
1411459,8,286,158,0
1411469,9,259,140,0
1411479,11,277,103,0
1411489,13,263,88,0
1411499,12,229,71,0
1411510,8,244,67,0
1411520,11,225,68,0
1411530,8,298,75,0
1411540,12,280,57,0
1411550,8,226,53,0
1411560,12,218,64,0
1411570,10,235,63,0
1411580,13,265,64,0
1411590,15,265,65,0
1411600,14,316,60,0
1411610,12,350,54,0
1411620,13,302,60,0
1411630,11,249,70,0
1411640,5,225,74,0
1411650,9,235,78,0
1411660,12,284,61,0
1411670,17,280,61,0
1411680,26,323,90,0
1411690,41,255,125,0
1411700,30,214,116,0
1411711,43,233,118,0
1411721,54,207,135,0
1411731,44,182,124,0
1411741,35,226,104,0
1411751,27,305,89,0
1411761,18,402,84,0
1411771,17,405,67,0
1411781,13,353,68,0
1411791,13,392,62,0
1411801,12,437,55,0
1411811,12,346,58,0
1411821,7,266,48,0
1411831,11,296,43,0
1411841,10,297,43,0
1411851,10,286,43,0
1411861,7,224,51,0
1411871,6,273,52,0
1411881,11,216,54,0
1411891,9,291,53,0
1411901,8,267,49,0
1411911,15,316,49,0
1411922,22,282,47,0
1411932,16,246,44,0
1411942,16,201,38,0
1411952,14,222,42,0
1411962,8,190,37,0
1411972,6,191,46,0
1411982,13,178,38,0
1411992,13,192,38,0
1412002,7,169,37,0
1412012,11,156,34,0
1412022,8,174,34,0
1412032,5,150,36,0
1412042,7,128,39,0
1412052,9,130,37,0
1412062,11,140,39,0
1412072,7,160,36,0
1412082,6,141,35,0
1412092,4,157,30,0
1412102,12,185,31,0
1412112,10,191,34,0
1412122,7,259,45,0
1412133,11,213,40,0
1412143,6,201,40,0
1412153,11,218,39,0
1412163,5,348,41,0
1412173,12,308,47,0
1412183,9,396,43,0
1412193,10,328,36,0
1412203,10,328,39,0
1412213,7,262,34,0
1412223,12,199,31,0
1412233,10,161,36,0
1412243,10,201,33,0
1412253,9,221,45,0
1412263,7,194,39,0
1412273,11,255,40,0
1412283,9,228,41,0
1412293,17,227,43,0
1412303,30,224,81,0
1412313,41,215,126,0
1412323,30,204,103,0
1412334,42,189,120,0
1412344,52,171,138,0
1412354,46,144,127,0
1412364,35,192,95,0
1412374,26,201,79,0
1412384,21,175,64,0
1412394,17,211,59,0
1412404,17,196,63,0
1412414,10,222,55,0
1412424,13,217,44,0
1412434,8,265,43,0
1412444,6,208,38,0
1412454,7,176,40,0
1412464,8,152,32,0
1412474,8,122,36,0
1412484,9,137,39,0
1412494,6,158,35,0
1412504,11,227,37,0
1412514,6,223,37,0
1412524,12,218,37,0
1412534,16,203,38,0
1412545,16,176,33,0
1412555,12,190,33,0
1412565,10,177,35,1001
1412575,11,216,33,0
1412585,11,250,37,0
1412595,11,251,38,0
1412605,11,257,43,0
1412615,10,217,36,0
1412625,12,219,36,0
1412635,13,175,31,0
1412645,7,226,36,0
1412655,7,191,35,0
1412665,13,217,38,0
1412675,9,200,32,0
1412685,6,217,30,0
1412695,14,283,35,0
1412705,10,255,43,0
1412715,11,236,41,0
1412725,11,199,42,0
1412735,14,160,43,0
1412745,10,139,34,0
1412756,9,135,34,0
1412766,12,145,30,0
1412776,8,225,34,0
1412786,8,193,39,0
1412796,11,185,38,0
1412806,10,141,35,0
1412816,8,123,30,0
1412826,11,139,31,0
1412836,6,122,39,0
1412846,9,110,43,0
1412856,8,99,43,0
1412866,13,117,46,0
1412876,15,107,48,0
1412886,11,103,50,0
1412896,19,123,60,0
1412906,33,151,109,0
1412916,33,192,125,0
1412926,33,216,112,0
1412936,49,213,136,0
1412946,51,201,143,0
1412956,46,213,107,0
1412967,33,176,84,0
1412977,18,201,70,0
1412987,19,185,56,0
1412997,18,229,46,0
1413007,13,267,46,0
1413017,12,342,48,0
1413027,12,257,39,0
1413037,10,244,32,0
1413047,8,266,35,0
1413057,8,198,39,0
1413067,7,167,37,0
1413077,10,165,37,0
1413087,11,143,38,0
1413097,6,136,42,0
1413107,6,131,45,0
1413117,14,158,48,0
1413127,17,184,50,0
1413137,16,172,51,0
1413147,17,182,46,0
1413157,8,239,49,0
1413168,12,220,46,0
1413178,9,194,44,0
1413188,9,158,41,0
1413198,14,147,35,0
1413208,10,154,43,0
1413218,10,165,41,0
1413228,9,163,39,0
1413238,10,170,41,0
1413248,10,197,35,0
1413258,14,171,31,0
1413268,14,137,41,0
1413278,13,164,36,0
1413288,12,187,39,0
1413298,12,283,47,0
1413308,6,276,43,0
1413318,11,293,40,0
1413328,8,245,41,0
1413338,8,232,46,0
1413348,14,190,43,0
1413358,13,159,41,0
1413368,7,152,40,0
1413379,7,169,43,0
1413389,12,224,41,0
1413399,6,184,49,0
1413409,9,146,50,0
1413419,7,186,47,0
1413429,13,213,45,0
1413439,6,172,45,0
1413449,7,125,41,0
1413459,12,134,41,0
1413469,12,137,40,0
1413479,10,135,38,0
1413489,23,112,59,0
1413499,40,134,120,0
1413509,39,154,142,0
1413519,40,118,124,0
1413529,55,148,143,0
1413539,65,181,166,0
1413549,47,208,135,0
1413559,30,200,91,0
1413569,23,201,72,0
1413579,19,160,55,0
1413590,13,123,48,0
1413600,14,173,49,0
1413610,14,180,54,0
1413620,13,183,46,0
1413630,7,151,43,0
1413640,7,173,31,0
1413650,7,174,39,0
1413660,9,208,44,0
1413670,9,248,44,0
1413680,8,205,41,0
1413690,7,224,43,0
1413700,9,181,41,0
1413710,13,142,35,0
1413720,19,112,41,0
1413730,22,126,45,0
1413740,17,142,42,0
1413750,17,158,41,0
1413760,18,201,36,0
1413770,11,257,37,0
1413780,15,255,36,0
1413791,14,247,38,0
1413801,9,254,43,0
1413811,12,255,38,0
1413821,14,235,31,0
1413831,13,216,32,0
1413841,9,165,32,0
1413851,10,177,32,0
1413861,6,138,34,0
1413871,6,137,27,0
1413881,7,114,29,0
1413891,10,100,36,0
1413901,7,153,35,0
1413911,10,143,29,0
1413921,14,170,29,0
1413931,10,185,30,0
1413941,9,206,39,0
1413951,9,158,36,0
1413961,10,159,36,0
1413971,15,156,35,0
1413981,10,158,32,0
1413991,9,154,43,0
1414002,8,137,41,0
1414012,12,153,37,0
1414022,12,168,33,0
1414032,12,206,36,0
1414042,10,183,39,0
1414052,6,160,39,0
1414062,8,128,31,0
1414072,8,127,34,0
1414082,13,143,37,0
1414092,11,192,55,0
1414102,29,160,84,0
1414112,44,216,124,0
1414122,33,185,101,0
1414132,42,174,123,0
1414142,52,137,148,0
1414152,56,109,148,0
1414162,44,140,117,0
1414172,35,147,91,0
1414182,23,175,71,0
1414192,20,126,54,0
1414202,12,179,48,0
1414213,11,165,47,0
1414223,9,222,47,700
1414233,11,168,45,0
1414243,14,159,36,0
1414253,12,211,41,0
1414263,6,180,43,0
1414273,12,244,33,0
1414283,7,195,28,0
1414293,9,203,37,0
1414303,7,175,39,0
1414313,7,165,39,0
1414323,9,173,42,0
1414333,12,164,43,0
1414343,14,190,40,0
1414353,15,208,43,0
1414363,10,230,41,0
1414373,12,203,34,0
1414383,11,185,32,0
1414393,7,135,30,0
1414403,9,116,41,0
1414413,5,91,43,0
1414424,8,135,41,0
1414434,8,176,41,0
1414444,9,175,41,0
1414454,12,169,44,0
1414464,9,134,44,0
1414474,7,164,36,0
1414484,9,159,35,0
1414494,11,167,35,0
1414504,6,207,35,0
1414514,8,158,31,0
1414524,12,185,34,0
1414534,8,161,29,0
1414544,11,149,44,0
1414554,9,165,40,0
1414564,10,137,41,0
1414574,11,139,39,0
1414584,6,149,35,0
1414594,10,123,38,0
1414604,6,122,44,0
1414614,12,112,42,0
1414625,12,171,46,0
1414635,7,141,48,0
1414645,10,195,43,0
1414655,10,157,38,0
1414665,10,112,37,0
1414675,12,167,34,0
1414685,8,213,39,0
1414695,14,252,37,0
1414705,31,247,52,0
1414715,36,266,95,0
1414725,26,253,83,0
1414735,40,300,97,0
1414745,52,307,120,0
1414755,54,223,110,0
1414765,40,185,93,0
1414775,26,155,71,0
1414785,17,143,57,0
1414795,14,223,49,0
1414805,12,233,44,0
1414815,15,302,44,0
1414825,16,255,44,0
1414836,12,261,41,0
1414846,10,197,42,0
1414856,7,138,48,0
1414866,5,112,47,0
1414876,6,118,45,0
1414886,5,153,41,0
1414896,10,143,40,0
1414906,5,199,37,0
1414916,6,169,36,0
1414926,9,132,41,0
1414936,11,94,43,0
1414946,9,95,39,0
1414956,16,146,35,0
1414966,9,127,42,0
1414976,9,151,43,0
1414986,7,222,40,0
1414996,6,214,42,0
1415006,10,368,53,0
1415016,10,360,45,0
1415026,9,299,47,0
1415036,13,288,41,0
1415047,7,240,38,0
1415057,6,279,42,0
1415067,11,231,41,0
1415077,11,255,40,0
1415087,11,210,52,0
1415097,6,168,51,0
1415107,10,140,47,0
1415117,8,137,49,0
1415127,7,167,49,0
1415137,11,189,49,0
1415147,9,176,47,0
1415157,9,216,42,0
1415167,14,174,46,0
1415177,10,211,43,0
1415187,9,201,40,0
1415197,7,189,34,0
1415207,11,164,33,0
1415217,8,145,38,0
1415227,10,158,37,0
1415237,10,128,48,0
1415247,7,172,49,0
1415258,6,151,49,0
1415268,8,205,51,0
1415278,6,229,52,0
1415288,10,234,60,0
1415298,22,206,61,0
1415308,37,156,106,0
1415318,35,142,110,0
1415328,39,123,93,0
1415338,49,102,107,0
1415348,55,228,127,0
1415358,42,223,108,0
1415368,34,305,85,0
1415378,24,240,63,0
1415388,21,234,58,0
1415398,15,207,52,0
1415408,17,205,54,0
1415418,14,160,55,0
1415428,8,134,64,0
1415438,11,237,56,0
1415448,7,297,56,0
1415459,7,273,41,0
1415469,11,284,42,0
1415479,11,211,45,0
1415489,11,213,54,0
1415499,8,182,44,0
1415509,10,153,51,0
1415519,15,279,57,0
1415529,13,244,54,0
1415539,17,243,52,0
1415549,18,245,53,0
1415559,16,220,56,0
1415569,10,272,65,0
1415579,9,201,56,0
1415589,14,153,48,0
1415599,8,231,53,0
1415609,6,229,51,0
1415619,8,232,46,0
1415629,7,257,48,0
1415639,9,211,48,0
1415649,10,278,45,0
1415659,10,309,44,0
1415670,7,234,62,0
1415680,9,244,59,0
1415690,10,317,55,0
1415700,12,250,51,0
1415710,6,303,45,0
1415720,9,276,45,0
1415730,11,278,46,701
1415740,6,284,48,0
1415750,14,259,50,0
1415760,8,198,47,0
1415770,9,192,46,0
1415780,12,156,45,0
1415790,12,157,39,0
1415800,15,187,50,0
1415810,14,171,55,0
1415820,13,259,53,0
1415830,10,250,41,0
1415840,9,271,46,0
1415850,13,245,46,0
1415860,8,246,45,0
1415870,15,224,48,0
1415881,14,226,56,0
1415891,24,251,56,0
1415901,37,415,89,0
1415911,41,351,107,0
1415921,38,337,90,0
1415931,53,242,120,0
1415941,62,241,140,0
1415951,55,178,114,0
1415961,39,218,90,0
1415971,30,275,70,0
1415981,21,257,61,0
1415991,15,241,55,0
1416001,13,311,55,0
1416011,12,296,52,0
1416021,7,251,45,0
1416031,11,218,46,0
1416041,11,183,46,0
1416051,13,171,42,0
1416061,7,179,53,0
1416071,11,169,57,0
1416081,7,157,47,0
1416092,7,166,48,0
1416102,8,177,40,0
1416112,11,159,35,0
1416122,10,139,39,0
1416132,9,131,30,0
1416142,12,147,47,0
1416152,17,207,37,0
1416162,11,201,38,0
1416172,10,232,40,0
1416182,12,194,33,0
1416192,11,214,33,0
1416202,13,260,43,0
1416212,8,215,43,0
1416222,8,203,42,0
1416232,10,221,41,0
1416242,9,205,51,0
1416252,10,227,50,0
1416262,9,234,46,0
1416272,6,304,49,0
1416282,6,291,45,0
1416293,10,283,42,0
1416303,10,289,36,0
1416313,7,278,37,0
1416323,6,260,46,0
1416333,9,263,41,0
1416343,9,342,46,0
1416353,8,346,52,0
1416363,6,295,50,0
1416373,13,339,55,0
1416383,9,280,42,0
1416393,8,268,40,0
1416403,8,276,39,0
1416413,8,327,49,0
1416423,9,265,46,0
1416433,7,296,47,0
1416443,9,268,40,0
1416453,14,285,43,0
1416463,7,238,42,0
1416473,22,214,45,0
1416483,28,232,78,0
1416493,35,219,120,0
1416504,28,199,97,0
1416514,44,225,116,0
1416524,47,219,127,0
1416534,42,208,118,0
1416544,35,260,91,0
1416554,23,262,65,0
1416564,16,206,68,0
1416574,16,181,54,0
1416584,12,197,44,0
1416594,9,251,43,0
1416604,11,221,49,0
1416614,12,264,50,0
1416624,9,232,49,0
1416634,4,263,54,0
1416644,6,240,50,0
1416654,6,222,40,0
1416664,11,237,37,0
1416674,8,313,45,0
1416684,10,296,47,0
1416694,13,245,43,0
1416704,14,220,38,0
1416715,17,268,37,0
1416725,14,210,35,0
1416735,13,321,35,0
1416745,9,309,52,0
1416755,16,313,45,0
1416765,12,324,41,0
1416775,9,332,40,0
1416785,10,282,43,0
1416795,12,240,42,0
1416805,9,312,47,0
1416815,13,265,54,0
1416825,9,261,54,0
1416835,8,258,47,0
1416845,6,253,45,0
1416855,9,264,41,0
1416865,10,271,48,0
1416875,11,335,42,0
1416885,8,284,45,0
1416895,10,294,46,0
1416905,13,283,38,0
1416916,12,352,40,0
1416926,10,382,50,0
1416936,13,396,56,0
1416946,13,306,53,0
1416956,13,344,48,0
1416966,12,274,48,0
1416976,14,299,49,0
1416986,12,338,43,0
1416996,14,296,45,0
1417006,12,458,45,0
1417016,8,429,42,0
1417026,8,409,45,0
1417036,16,363,53,0
1417046,26,316,77,0
1417056,36,287,107,0
1417066,31,319,100,0
1417076,41,362,108,0
1417086,49,317,156,0
1417096,48,291,135,0
1417106,41,381,110,0
1417116,33,407,91,0
1417127,20,468,78,0
1417137,18,426,63,0
1417147,16,378,55,0
1417157,14,313,42,0
1417167,14,298,46,0
1417177,9,304,48,0
1417187,9,309,49,0
1417197,12,262,47,0
1417207,5,265,51,0
1417217,10,320,66,0
1417227,10,275,67,0
1417237,12,350,67,0
1417247,9,309,66,0
1417257,13,250,63,0
1417267,10,224,59,0
1417277,8,336,53,0
1417287,13,279,49,0
1417297,15,355,58,0
1417307,16,354,51,0
1417317,11,352,57,0
1417327,12,393,57,0
1417338,13,334,57,0
1417348,10,335,50,0
1417358,11,377,50,0
1417368,10,378,49,0
1417378,11,343,58,0
1417388,11,333,66,0
1417398,13,321,60,0
1417408,11,305,55,0
1417418,13,289,47,0
1417428,14,256,56,0
1417438,11,285,47,0
1417448,14,349,45,0
1417458,15,328,50,0
1417468,18,349,71,0
1417478,17,325,80,0
1417488,15,290,70,0
1417498,9,303,73,0
1417508,6,274,69,0
1417518,8,337,75,0
1417528,11,349,65,0
1417538,6,380,55,0
1417549,7,316,55,0
1417559,12,291,47,0
1417569,16,275,69,0
1417579,11,313,72,0
1417589,16,308,74,0
1417599,20,303,84,0
1417609,30,357,87,0
1417619,40,372,127,0
1417629,39,318,115,0
1417639,46,265,96,0
1417649,54,276,152,0
1417659,52,289,156,0
1417669,44,270,108,0
1417679,31,334,92,0
1417689,22,311,71,0
1417699,22,282,74,0
1417709,17,304,66,0
1417719,16,283,72,0
1417729,13,230,73,0
1417739,12,322,83,0
1417750,17,342,86,0
1417760,13,315,122,0
1417770,12,375,232,0
1417780,16,346,343,0
1417790,13,363,389,0
1417800,16,315,329,0
1417810,19,314,254,0
1417820,16,333,228,0
1417830,17,252,249,0
1417840,17,250,281,0
1417850,20,270,260,0
1417860,15,340,276,0
1417870,15,349,221,0
1417880,11,304,200,0
1417890,10,304,148,0
1417900,12,281,124,0
1417910,16,296,158,0
1417920,13,272,126,0
1417930,17,307,117,0
1417940,11,282,121,0
1417950,19,337,101,0
1417961,11,282,87,0
1417971,12,256,71,0
1417981,10,300,81,0
1417991,12,342,81,0
1418001,10,258,70,0
1418011,11,247,61,0
1418021,14,295,51,0
1418031,15,256,53,0
1418041,13,305,51,0
1418051,13,326,93,0
1418061,13,312,99,0
1418071,12,305,159,0
1418081,15,350,129,0
1418091,13,287,104,0
1418101,11,239,94,0
1418111,13,238,86,0
1418121,15,270,129,0
1418131,13,267,114,0
1418141,11,232,90,0
1418151,12,249,71,0
1418162,15,271,79,0
1418172,29,344,78,0
1418182,38,305,141,0
1418192,33,269,147,0
1418202,30,238,169,0
1418212,42,264,151,0
1418222,49,241,127,0
1418232,45,298,142,0
1418242,30,301,145,0
1418252,23,332,124,0
1418262,20,364,113,0
1418272,16,403,107,0
1418282,11,348,76,0
1418292,12,346,86,0
1418302,12,302,74,0
1418312,8,284,69,0
1418322,7,359,56,0
1418332,14,382,56,0
1418342,14,325,60,0
1418352,11,299,60,0
1418362,9,304,79,0
1418373,9,294,87,0
1418383,14,240,73,0
1418393,15,242,66,0
1418403,11,251,67,0
1418413,13,249,98,0
1418423,13,320,89,0
1418433,14,314,89,0
1418443,11,365,81,0
1418453,13,323,119,0
1418463,12,440,115,0
1418473,10,366,102,0
1418483,7,296,106,0
1418493,13,226,87,0
1418503,15,246,119,0
1418513,12,266,128,0
1418523,15,343,118,0
1418533,16,263,101,0
1418543,15,311,84,0
1418553,11,327,84,0
1418563,18,342,105,0
1418573,16,366,89,0
1418584,15,386,88,0
1418594,12,374,90,0
1418604,13,317,83,0
1418614,16,248,138,0
1418624,16,239,125,0
1418634,18,234,99,0
1418644,11,312,91,0
1418654,10,310,121,0
1418664,12,267,106,0
1418674,13,295,92,0
1418684,9,278,87,0
1418694,15,315,94,0
1418704,9,332,79,0
1418714,11,342,63,0
1418724,11,374,103,0
1418734,14,357,108,702
1418744,29,414,91,0
1418754,26,433,103,0
1418764,27,361,132,0
1418774,43,410,161,0
1418785,52,305,116,0
1418795,41,350,105,0
1418805,29,364,92,0
1418815,23,449,88,0
1418825,22,377,95,0
1418835,19,335,84,0
1418845,19,335,68,0
1418855,17,351,86,0
1418865,7,351,83,0
1418875,14,377,80,0
1418885,15,346,68,0
1418895,14,267,67,0
1418905,12,261,85,0
1418915,12,310,72,0
1418925,15,340,72,0
1418935,18,292,71,0
1418945,19,271,67,0
1418955,17,244,67,0
1418965,13,278,68,0
1418975,14,257,72,0
1418985,14,267,73,0
1418996,13,279,74,0
1419006,11,317,79,0
1419016,9,290,85,0
1419026,9,285,71,0
1419036,9,260,67,0
1419046,13,264,65,0
1419056,11,274,72,0
1419066,12,341,61,0
1419076,12,303,64,0
1419086,9,307,57,0
1419096,13,276,58,0
1419106,8,275,52,0
1419116,6,283,45,0
1419126,12,320,53,0
1419136,14,329,48,0
1419146,11,289,47,0
1419156,10,267,64,0
1419166,11,230,59,0
1419176,14,184,58,0
1419186,12,259,69,0
1419196,7,253,77,0
1419207,8,251,69,0
1419217,8,239,72,0
1419227,8,243,65,0
1419237,11,257,59,0
1419247,7,204,69,0
1419257,15,223,58,0
1419267,9,286,79,0
1419277,13,252,106,0
1419287,16,223,94,0
1419297,27,218,90,0
1419307,36,216,127,0
1419317,34,205,103,0
1419327,45,217,87,0
1419337,53,190,79,0
1419347,53,167,88,0
1419357,38,165,93,0
1419367,28,163,81,0
1419377,15,190,112,0
1419387,14,193,212,0
1419397,11,208,305,0
1419408,8,290,369,0
1419418,9,286,358,0
1419428,14,220,268,0
1419438,8,194,216,0
1419448,11,208,226,0
1419458,6,186,269,0
1419468,10,184,298,0
1419478,12,306,305,0
1419488,9,294,273,0
1419498,6,359,241,0
1419508,10,367,248,0
1419518,15,419,240,0
1419528,14,329,203,0
1419538,18,332,160,0
1419548,13,297,134,0
1419558,10,238,114,0
1419568,7,224,113,0
1419578,9,193,97,0
1419588,5,212,91,0
1419598,5,267,77,0
1419608,7,363,79,0
1419619,10,303,75,0
1419629,11,303,60,0
1419639,14,274,61,0
1419649,8,214,60,0
1419659,9,294,57,0
1419669,10,257,54,0
1419679,11,354,49,0
1419689,12,274,48,0
1419699,7,259,51,0
1419709,12,217,52,0
1419719,13,271,62,0
1419729,7,240,66,0
1419739,10,304,70,0
1419749,15,243,70,0
1419759,14,224,64,0
1419769,14,250,73,0
1419779,11,227,65,0
1419789,10,240,53,0
1419799,16,264,61,0
1419809,14,269,57,0
1419819,14,312,48,0
1419830,10,296,42,0
1419840,7,264,50,0
1419850,8,255,44,0
1419860,19,218,46,0
1419870,35,217,93,0
1419880,42,201,121,0
1419890,35,170,103,0
1419900,54,232,109,0
1419910,56,233,108,0
1419920,46,265,106,0
1419930,37,255,85,0
1419940,25,291,73,0
1419950,21,308,62,0
1419960,19,262,52,0
1419970,14,288,56,0
1419980,14,275,42,0
1419990,10,230,41,0
1420000,14,223,39,0
1420010,9,236,41,0
1420020,8,197,40,0
1420031,6,229,45,0
1420041,5,208,43,0
1420051,14,214,47,0
1420061,9,275,46,0
1420071,10,246,45,0
1420081,13,311,52,0
1420091,13,218,46,0
1420101,16,166,51,0
1420111,15,190,49,0
1420121,14,146,48,0
1420131,14,135,41,0
1420141,14,104,42,0
1420151,10,96,39,0
1420161,9,125,42,0
1420171,11,162,39,0
1420181,14,236,46,0
1420191,9,215,50,0
1420201,12,226,51,0
1420211,10,189,46,0
1420221,10,160,36,0
1420231,13,152,37,0
1420242,6,208,45,0
1420252,10,165,45,0
1420262,8,145,36,0
1420272,10,216,38,0
1420282,10,225,39,0
1420292,11,204,35,0
1420302,7,244,32,0
1420312,6,191,41,0
1420322,8,170,47,0
1420332,7,149,48,0
1420342,7,155,47,0
1420352,7,122,44,0
1420362,9,130,41,0
1420372,13,108,38,0
1420382,9,107,38,0
1420392,11,136,36,0
1420402,8,156,41,0
1420412,11,209,47,0
1420422,13,197,40,0
1420432,16,182,37,0
1420442,25,179,49,0
1420453,38,194,81,0
1420463,32,260,84,0
1420473,42,282,82,0
1420483,51,289,112,0
1420493,53,279,119,0
1420503,41,347,99,0
1420513,32,295,78,0
1420523,25,259,59,0
1420533,18,259,49,0
1420543,14,226,42,0
1420553,8,192,46,0
1420563,11,217,45,0
1420573,13,301,42,0
1420583,5,329,48,0
1420593,5,268,36,0
1420603,5,242,37,0
1420613,9,230,35,0
1420623,11,229,37,0
1420633,11,198,43,0
1420643,7,156,39,0
1420653,11,137,39,0
1420664,8,123,42,0
1420674,8,132,36,0
1420684,12,140,35,0
1420694,19,135,39,0
1420704,16,194,46,0
1420714,15,254,43,0
1420724,12,309,34,0
1420734,6,230,38,1001
1420744,12,194,37,0
1420754,5,170,36,0
1420764,8,165,32,0
1420774,9,230,37,0
1420784,5,205,36,0
1420794,12,244,35,0
1420804,11,243,41,0
1420814,7,220,42,0
1420824,12,167,40,0
1420834,6,155,37,0
1420844,10,156,38,0
1420854,10,143,44,0
1420865,10,191,43,0
1420875,10,198,32,0
1420885,12,207,35,0
1420895,11,245,33,0
1420905,13,195,36,0
1420915,11,262,35,0
1420925,13,204,38,0
1420935,11,195,35,0
1420945,4,226,32,0
1420955,10,265,35,0
1420965,5,299,32,0
1420975,9,272,37,0
1420985,12,283,36,0
1420995,11,291,33,0
1421005,9,241,31,0
1421015,16,215,43,0
1421025,31,154,76,0
1421035,32,164,110,0
1421045,26,151,96,0
1421055,43,168,114,0
1421065,52,194,129,0
1421076,49,157,114,0
1421086,33,188,88,0
1421096,24,190,73,0
1421106,14,226,56,0
1421116,11,216,53,0
1421126,18,207,43,0
1421136,10,189,41,0
1421146,13,164,33,0
1421156,8,185,27,0
1421166,11,174,23,0
1421176,11,203,26,0
1421186,14,196,31,0
1421196,10,160,32,0
1421206,12,158,33,0
1421216,11,157,35,0
1421226,8,122,36,0
1421236,12,117,42,0
1421246,12,108,37,0
1421256,11,155,39,0
1421266,11,157,43,0
1421276,12,197,37,0
1421287,10,194,34,0
1421297,9,184,34,0
1421307,11,164,31,0
1421317,6,168,34,0
1421327,10,139,40,0
1421337,14,118,40,0
1421347,6,108,40,0
1421357,7,110,36,0
1421367,7,131,39,0
1421377,7,147,29,0
1421387,8,153,33,0
1421397,7,127,36,0
1421407,12,143,36,0
1421417,9,145,39,0
1421427,10,149,36,0
1421437,8,165,38,0
1421447,7,207,37,0
1421457,11,253,39,0
1421467,10,196,39,0
1421477,11,273,40,0
1421487,6,224,49,0
1421498,4,272,51,0
1421508,13,248,51,0
1421518,8,316,44,0
1421528,12,266,41,0
1421538,10,261,36,0
1421548,4,205,41,0
1421558,2,222,32,0
1421568,9,169,40,0
1421578,10,164,47,0
1421588,8,149,43,0
1421598,15,193,51,0
1421608,36,197,98,0
1421618,33,297,100,0
1421628,33,280,83,0
1421638,49,223,114,0
1421648,55,208,132,0
1421658,44,231,107,0
1421668,32,230,83,0
1421678,24,218,67,0
1421688,15,166,58,0
1421699,16,132,53,0
1421709,16,156,47,0
1421719,12,141,46,0
1421729,11,157,50,0
1421739,13,182,43,0
1421749,6,154,49,0
1421759,11,208,46,0
1421769,10,214,48,0
1421779,12,214,53,0
1421789,15,177,60,0
1421799,14,227,44,0
1421809,17,216,47,0
1421819,15,202,43,0
1421829,19,174,58,0
1421839,15,139,60,0
1421849,18,134,59,0
1421859,12,152,54,0
1421869,13,177,45,0
1421879,10,200,40,0
1421889,14,191,33,0
1421899,14,158,36,0
1421910,12,135,33,0
1421920,14,134,38,0
1421930,6,181,38,0
1421940,6,203,35,0
1421950,7,252,33,0
1421960,11,244,38,0
1421970,9,208,45,0
1421980,6,201,49,0
1421990,9,185,41,0
1422000,8,186,39,0
1422010,8,173,50,0
1422020,11,220,46,0
1422030,16,212,43,0
1422040,12,232,36,0
1422050,11,205,43,0
1422060,8,188,41,0
1422070,9,197,43,0
1422080,13,147,41,0
1422090,5,116,36,0
1422100,9,97,41,0
1422110,10,93,44,0
1422121,10,96,39,0
1422131,8,122,43,0
1422141,9,128,39,0
1422151,9,128,43,0
1422161,9,108,43,0
1422171,13,96,43,0
1422181,16,92,40,0
1422191,35,124,78,0
1422201,41,144,114,0
1422211,32,170,85,0
1422221,46,186,108,0
1422231,59,139,132,0
1422241,51,119,112,0
1422251,36,189,85,0
1422261,26,224,71,0
1422271,22,256,62,0
1422281,19,222,53,0
1422291,10,183,53,0
1422301,16,200,52,0
1422311,10,170,44,0
1422322,11,155,41,0
1422332,10,189,41,0
1422342,12,152,36,0
1422352,13,131,31,0
1422362,5,137,29,0
1422372,11,170,30,0
1422382,7,169,30,0
1422392,9,184,33,0
1422402,9,152,40,0
1422412,10,132,44,0
1422422,16,123,46,0
1422432,13,137,42,0
1422442,9,160,37,0
1422452,12,185,36,0
1422462,9,233,35,0
1422472,9,228,35,0
1422482,12,212,31,0
1422492,6,266,46,0
1422502,12,229,45,700
1422512,12,196,37,0
1422522,12,151,38,0
1422533,10,204,36,0
1422543,8,163,31,0
1422553,8,141,31,0
1422563,12,147,31,0
1422573,6,129,29,0
1422583,8,110,33,0
1422593,14,131,38,0
1422603,9,124,32,0
1422613,10,106,35,0
1422623,10,178,37,0
1422633,15,177,35,0
1422643,10,315,41,0
1422653,10,270,43,0
1422663,15,211,44,0
1422673,15,199,43,0
1422683,9,152,39,0
1422693,7,151,42,0
1422703,10,167,39,0
1422713,9,137,41,0
1422723,6,164,42,0
1422733,11,171,40,0
1422744,13,154,41,0
1422754,10,147,40,0
1422764,11,141,44,0
1422774,15,153,44,0
1422784,25,128,63,0
1422794,39,104,116,0
1422804,29,108,102,0
1422814,37,98,117,0
1422824,54,90,151,0
1422834,50,90,134,0
1422844,35,103,95,0
1422854,27,100,74,0
1422864,18,119,58,0
1422874,19,135,47,0
1422884,16,138,45,0
1422894,11,146,44,0
1422904,8,144,51,0
1422914,10,156,53,0
1422924,9,178,51,0
1422934,13,178,42,0
1422944,7,139,43,0
1422955,6,172,44,0
1422965,9,180,45,0
1422975,6,227,48,0
1422985,8,232,47,0
1422995,10,196,49,0
1423005,10,171,42,0
1423015,14,158,39,0
1423025,11,223,41,0
1423035,12,184,45,0
1423045,13,196,44,0
1423055,11,159,48,0
1423065,7,175,44,0
1423075,13,175,53,0
1423085,7,183,45,0
1423095,9,143,46,0
1423105,11,159,46,0
1423115,10,189,40,0
1423125,12,152,43,0
1423135,14,183,44,0
1423145,8,207,37,0
1423156,12,253,33,0
1423166,7,188,32,0
1423176,12,134,30,0
1423186,9,122,28,0
1423196,5,158,28,0
1423206,9,138,33,0
1423216,5,124,39,0
1423226,11,134,36,0
1423236,10,174,44,0
1423246,12,149,47,0
1423256,10,179,46,0
1423266,8,155,39,0
1423276,15,129,37,0
1423286,15,148,36,0
1423296,9,256,40,0
1423306,5,186,36,0
1423316,7,174,47,0
1423326,14,139,47,0
1423336,15,110,42,0
1423346,13,90,39,0
1423356,23,93,46,0
1423367,31,153,62,0
1423377,36,257,106,0
1423387,29,250,93,0
1423397,40,214,109,0
1423407,50,171,152,0
1423417,56,138,147,0
1423427,35,159,104,0
1423437,24,185,82,0
1423447,22,153,61,0
1423457,14,139,53,0
1423467,10,124,43,0
1423477,15,144,45,0
1423487,6,142,49,0
1423497,12,118,47,0
1423507,11,139,46,0
1423517,9,108,43,0
1423527,8,90,48,0
1423537,8,176,47,0
1423547,12,160,49,0
1423557,12,147,60,0
1423567,12,113,50,0
1423578,6,99,47,0
1423588,12,147,44,0
1423598,13,161,40,0
1423608,15,182,46,0
1423618,12,171,55,0
1423628,9,272,53,0
1423638,13,246,51,0
1423648,13,241,46,0
1423658,9,207,46,0
1423668,12,197,45,0
1423678,7,181,41,0
1423688,6,161,37,0
1423698,9,149,39,0
1423708,11,219,44,0
1423718,6,241,43,0
1423728,8,210,45,0
1423738,8,256,45,0
1423748,12,237,42,0
1423758,4,254,42,0
1423768,8,254,39,0
1423779,10,255,38,0
1423789,7,320,38,0
1423799,10,260,43,0
1423809,6,224,39,0
1423819,13,236,46,0
1423829,12,259,49,0
1423839,9,310,46,0
1423849,9,324,47,0
1423859,12,269,42,0
1423869,7,259,44,0
1423879,11,208,48,0
1423889,10,174,54,0
1423899,11,146,53,0
1423909,6,236,49,0
1423919,7,244,41,0
1423929,11,240,43,0
1423939,12,207,52,0
1423949,16,240,51,0
1423959,32,262,59,0
1423969,43,324,95,0
1423979,33,282,82,0
1423990,45,239,93,0
1424000,54,260,119,701
1424010,50,226,111,0
1424020,40,229,87,0
1424030,29,294,93,0
1424040,18,240,66,0
1424050,14,259,55,0
1424060,16,233,59,0
1424070,10,300,55,0
1424080,11,266,52,0
1424090,14,202,48,0
1424100,12,230,46,0
1424110,6,174,56,0
1424120,9,152,57,0
1424130,9,172,56,0
1424140,6,201,48,0
1424150,13,215,45,0
1424160,8,206,51,0
1424170,12,252,49,0
1424180,9,261,57,0
1424190,12,270,53,0
1424201,13,377,45,0
1424211,8,324,43,0
1424221,14,358,46,0
1424231,11,273,49,0
1424241,9,246,46,0
1424251,8,231,64,0
1424261,9,203,56,0
1424271,4,199,48,0
1424281,5,278,47,0
1424291,6,198,47,0
1424301,12,199,61,0
1424311,7,226,61,0
1424321,9,256,56,0
1424331,7,264,51,0
1424341,11,253,45,0
1424351,7,342,43,0
1424361,10,317,39,0
1424371,10,310,48,0
1424381,8,301,51,0
1424391,17,264,46,0
1424401,11,295,49,0
1424412,15,256,49,0
1424422,11,229,53,0
1424432,14,188,47,0
1424442,11,195,57,0
1424452,15,198,59,0
1424462,9,182,52,0
1424472,9,200,45,0
1424482,8,246,42,0
1424492,14,275,41,0
1424502,9,231,50,0
1424512,10,203,44,0
1424522,14,331,41,0
1424532,10,328,40,0
1424542,15,289,47,0
1424552,30,260,84,0
1424562,36,270,104,0
1424572,31,249,88,0
1424582,49,236,118,0
1424592,57,239,122,0
1424602,51,297,109,0
1424613,34,306,91,0
1424623,24,256,75,0
1424633,17,203,57,0
1424643,16,239,48,0
1424653,15,224,45,0
1424663,11,292,39,0
1424673,12,236,48,0
1424683,9,211,40,0
1424693,9,240,46,0
1424703,13,264,49,0
1424713,14,241,52,0
1424723,12,256,45,0
1424733,10,247,49,0
1424743,10,341,46,0
1424753,11,351,44,0
1424763,10,279,47,0
1424773,7,291,48,0
1424783,14,289,44,0
1424793,16,315,43,0
1424803,12,313,47,0
1424813,13,247,45,0
1424824,10,273,45,0
1424834,7,285,45,0
1424844,11,287,52,0
1424854,9,234,54,0
1424864,13,230,51,0
1424874,11,261,49,0
1424884,10,316,45,0
1424894,9,262,49,0
1424904,7,242,50,0
1424914,7,293,52,0
1424924,12,318,41,0
1424934,8,338,48,0
1424944,6,306,43,0
1424954,8,361,41,0
1424964,9,410,48,0
1424974,11,326,48,0
1424984,8,357,46,0
1424994,10,293,48,0
1425004,11,304,44,0
1425014,10,319,50,0
1425024,13,320,60,0
1425035,13,297,49,0
1425045,7,342,54,0
1425055,9,278,53,0
1425065,10,274,47,0
1425075,11,275,47,0
1425085,9,299,43,0
1425095,11,265,40,0
1425105,11,304,44,0
1425115,11,300,38,0
1425125,20,328,52,0
1425135,28,337,95,0
1425145,27,317,105,0
1425155,30,313,90,0
1425165,44,328,123,0
1425175,48,348,126,0
1425185,38,303,91,0
1425195,28,321,77,0
1425205,19,260,66,0
1425215,15,272,55,0
1425225,16,299,46,0
1425236,15,392,49,0
1425246,10,396,59,0
1425256,8,335,58,0
1425266,13,286,54,0
1425276,13,352,60,0
1425286,9,352,62,0
1425296,7,343,45,0
1425306,13,314,47,0
1425316,13,271,43,0
1425326,7,244,54,0
1425336,11,284,44,0
1425346,14,225,42,0
1425356,13,284,43,0
1425366,15,408,48,0
1425376,16,303,54,0
1425386,14,281,48,0
1425396,8,315,60,0
1425406,11,289,56,0
1425416,15,266,59,0
1425426,11,238,57,0
1425436,14,242,48,0
1425447,12,249,51,0
1425457,9,247,50,0
1425467,12,270,56,0
1425477,13,215,49,0
1425487,11,312,46,0
1425497,8,332,58,0
1425507,12,305,58,0
1425517,14,329,58,0
1425527,14,266,57,0
1425537,11,341,61,0
1425547,18,283,62,0
1425557,12,310,57,0
1425567,14,261,56,0
1425577,10,285,49,0
1425587,10,262,46,0
1425597,14,273,54,0
1425607,11,357,68,0
1425617,10,386,84,0
1425627,9,329,82,0
1425637,13,265,73,0
1425647,18,328,93,0
1425658,17,280,89,0
1425668,14,354,113,0
1425678,10,349,110,0
1425688,14,281,111,0
1425698,31,280,106,0
1425708,46,280,119,0
1425718,37,245,125,0
1425728,36,278,123,0
1425738,45,247,155,0
1425748,47,311,159,0
1425758,33,319,114,0
1425768,23,344,82,0
1425778,19,307,68,0
1425788,19,314,59,0
1425798,13,276,68,0
1425808,10,353,63,0
1425818,12,301,80,0
1425828,9,277,101,0
1425838,8,311,100,0
1425848,14,282,85,0
1425859,10,361,67,0
1425869,10,309,77,0
1425879,12,265,58,0
1425889,12,207,55,0
1425899,16,227,70,0
1425909,14,335,59,0
1425919,23,311,55,0
1425929,20,268,42,0
1425939,15,331,55,0
1425949,15,283,57,0
1425959,14,243,51,0
1425969,13,326,63,0
1425979,11,397,86,0
1425989,9,315,102,0
1425999,12,327,134,0
1426009,14,316,158,0
1426019,8,303,190,0
1426029,9,307,226,0
1426039,12,332,317,0
1426049,12,296,247,0
1426059,12,223,198,0
1426070,11,322,201,0
1426080,11,325,188,0
1426090,11,352,172,0
1426100,15,359,140,0
1426110,16,388,164,0
1426120,14,310,168,0
1426130,15,283,138,0
1426140,11,353,169,0
1426150,17,304,141,0
1426160,15,252,114,0
1426170,11,233,90,0
1426180,12,292,140,0
1426190,13,292,138,0
1426200,15,334,105,0
1426210,11,303,102,0
1426220,13,298,89,0
1426230,14,295,94,0
1426240,15,270,92,0
1426250,14,386,94,0
1426260,19,301,89,0
1426270,22,232,112,0
1426281,36,304,142,0
1426291,34,308,124,0
1426301,34,306,112,0
1426311,44,234,125,0
1426321,47,315,112,0
1426331,36,294,126,0
1426341,25,332,119,0
1426351,18,280,98,0
1426361,18,253,124,0
1426371,14,239,114,0
1426381,18,321,109,0
1426391,14,356,94,0
1426401,12,273,112,0
1426411,14,252,100,0
1426421,12,266,113,0
1426431,15,326,116,0
1426441,13,302,104,0
1426451,12,248,109,0
1426461,13,342,102,0
1426471,18,297,114,0
1426482,13,331,106,0
1426492,15,387,130,0
1426502,12,329,97,0
1426512,11,354,101,0
1426522,9,370,99,0
1426532,14,349,133,0
1426542,14,293,110,0
1426552,15,309,95,0
1426562,16,433,93,0
1426572,11,347,84,0
1426582,12,297,102,0
1426592,11,274,93,0
1426602,15,286,85,0
1426612,15,341,82,0
1426622,10,324,86,0
1426632,10,365,97,0
1426642,8,321,105,0
1426652,12,312,100,0
1426662,13,294,78,0
1426672,10,274,86,0
1426682,12,289,91,0
1426693,13,351,99,0
1426703,12,296,97,0
1426713,7,320,119,0
1426723,10,304,94,0
1426733,11,265,101,0
1426743,14,307,97,0
1426753,18,355,120,0
1426763,14,313,106,0
1426773,18,247,86,0
1426783,15,312,88,0
1426793,18,400,87,0
1426803,13,369,110,0
1426813,21,389,179,0
1426823,24,313,163,0
1426833,21,346,129,0
1426843,18,347,106,0
1426853,26,297,128,0
1426863,36,305,168,0
1426873,26,357,154,0
1426883,31,398,185,0
1426894,40,353,172,0
1426904,41,303,136,0
1426914,32,258,104,0
1426924,27,347,111,0
1426934,18,382,128,0
1426944,21,362,101,0
1426954,14,393,111,0
1426964,12,300,91,0
1426974,14,273,96,0
1426984,12,292,102,0
1426994,15,339,92,0
1427004,17,321,114,702
1427014,17,322,89,0
1427024,13,295,88,0
1427034,15,357,94,0
1427044,17,312,79,0
1427054,14,322,63,0
1427064,16,332,76,0
1427074,12,332,88,0
1427084,18,368,83,0
1427094,14,371,83,0
1427105,11,357,66,0
1427115,14,345,87,0
1427125,15,315,97,0
1427135,16,265,148,0
1427145,18,400,127,0
1427155,19,333,97,0
1427165,11,343,80,0
1427175,9,342,93,0
1427185,19,397,125,0
1427195,17,374,108,0
1427205,18,404,101,0
1427215,18,363,84,0
1427225,11,333,65,0
1427235,12,317,69,0
1427245,12,292,74,0
1427255,14,381,66,0
1427265,15,343,64,0
1427275,13,324,71,0
1427285,12,372,106,0
1427295,13,384,107,0
1427305,16,308,101,0
1427316,18,290,106,0
1427326,15,284,122,0
1427336,24,298,172,0
1427346,20,325,143,0
1427356,17,320,107,0
1427366,11,292,81,0
1427376,17,293,84,0
1427386,13,316,97,0
1427396,14,281,101,0
1427406,14,258,112,0
1427416,15,359,90,0
1427426,17,378,70,0
1427436,24,306,107,0
1427446,23,330,163,0
1427456,19,307,151,0
1427466,31,305,162,0
1427476,40,286,141,0
1427486,33,241,128,0
1427496,28,281,108,0
1427506,20,238,116,0
1427517,19,219,123,0
1427527,13,274,104,0
1427537,20,286,103,0
1427547,16,231,93,0
1427557,15,229,87,0
1427567,15,251,90,0
1427577,13,209,95,0
1427587,12,265,90,0
1427597,11,245,85,0
1427607,7,265,76,0
1427617,11,259,70,0
1427627,8,265,61,0
1427637,8,243,60,0
1427647,14,260,58,0
1427657,14,269,58,0
1427667,14,268,60,0
1427677,21,260,94,0
1427687,14,243,78,0
1427697,11,231,77,0
1427707,14,282,90,0
1427717,9,247,78,0
1427728,10,220,67,0
1427738,10,211,66,0
1427748,15,191,103,0
1427758,15,217,89,0
1427768,18,164,82,0
1427778,15,188,76,0
1427788,12,216,95,0
1427798,8,256,80,0
1427808,10,293,78,0
1427818,13,237,77,0
1427828,16,209,86,0
1427838,12,232,71,0
1427848,8,177,75,0
1427858,18,198,81,0
1427868,19,263,77,0
1427878,14,277,71,0
1427888,21,308,107,0
1427898,19,279,92,0
1427908,15,238,99,0
1427918,16,188,85,0
1427928,13,191,83,0
1427939,11,219,95,0
1427949,10,273,125,0
1427959,14,310,138,0
1427969,9,295,143,0
1427979,10,262,193,0
1427989,12,238,253,0
1427999,12,283,265,0
1428009,13,296,211,0
1428019,16,276,157,0
1428029,33,237,143,0
1428039,34,202,150,0
1428049,31,234,249,0
1428059,42,305,318,0
1428069,49,256,337,0
1428079,41,229,312,0
1428089,33,275,256,0
1428099,22,258,214,0
1428109,14,256,174,0
1428119,18,246,141,0
1428129,15,338,133,0
1428140,11,305,134,0
1428150,11,304,106,0
1428160,8,299,87,0
1428170,11,235,69,0
1428180,10,178,59,0
1428190,9,188,65,0
1428200,7,237,58,0
1428210,11,228,57,0
1428220,10,189,64,0
1428230,14,197,65,0
1428240,9,245,53,0
1428250,16,261,61,0
1428260,10,213,69,0
1428270,12,160,62,0
1428280,9,192,77,0
1428290,8,201,68,0
1428300,13,209,62,0
1428310,11,251,63,0
1428320,8,264,69,0
1428330,11,205,62,0
1428340,12,218,56,0
1428351,15,202,42,0
1428361,15,283,46,0
1428371,14,272,50,0
1428381,9,208,58,0
1428391,7,269,58,0
1428401,8,257,55,0
1428411,10,288,64,0
1428421,13,205,55,0
1428431,11,205,63,0
1428441,6,229,54,0
1428451,10,237,60,0
1428461,8,307,60,0
1428471,7,309,58,0
1428481,11,230,59,0
1428491,12,245,53,0
1428501,11,223,53,0
1428511,13,224,55,0
1428521,13,242,56,0
1428531,12,248,75,0
1428541,14,229,71,0
1428551,16,198,56,0
1428562,12,183,55,0
1428572,13,147,48,0
1428582,8,162,48,0
1428592,13,166,48,0
1428602,7,179,50,0
1428612,6,172,51,0
1428622,9,207,55,0
1428632,14,222,54,0
1428642,17,228,55,0
1428652,38,221,103,0
1428662,36,210,132,0
1428672,41,157,113,0
1428682,51,210,136,0
1428692,54,241,146,0
1428702,49,231,126,0
1428712,41,229,97,0
1428722,28,251,84,0
1428732,22,205,76,0
1428742,17,189,62,0
1428752,12,270,58,0
1428763,8,222,53,0
1428773,13,211,50,0
1428783,13,255,54,0
1428793,9,219,45,0
1428803,8,283,48,0
1428813,10,346,59,0
1428823,11,283,53,0
1428833,11,261,56,0
1428843,9,313,60,0
1428853,12,222,50,0
1428863,11,176,49,0
1428873,10,140,47,0
1428883,14,123,45,0
1428893,16,140,41,0
1428903,11,124,47,0
1428913,10,123,42,0
1428923,8,107,37,0
1428933,12,95,47,0
1428943,9,158,61,0
1428953,9,179,54,0
1428963,12,158,48,0
1428974,12,144,43,0
1428984,9,160,41,0
1428994,7,151,39,0
1429004,8,127,42,1001
1429014,10,116,46,0
1429024,4,99,48,0
1429034,5,197,42,0
1429044,8,201,45,0
1429054,9,277,44,0
1429064,11,271,45,0
1429074,6,231,44,0
1429084,9,203,46,0
1429094,6,164,40,0
1429104,11,178,42,0
1429114,10,161,39,0
1429124,9,195,35,0
1429134,8,169,43,0
1429144,5,147,36,0
1429154,5,113,38,0
1429164,8,123,37,0
1429174,9,105,37,0
1429185,13,83,39,0
1429195,7,164,38,0
1429205,12,148,48,0
1429215,5,232,46,0
1429225,7,204,47,0
1429235,5,224,45,0
1429245,12,202,51,0
1429255,8,213,49,0
1429265,11,172,45,0
1429275,17,154,52,0
1429285,30,124,87,0
1429295,33,98,105,0
1429305,33,105,89,0
1429315,50,106,131,0
1429325,56,99,136,0
1429335,49,92,130,0
1429345,35,115,102,0
1429355,30,109,72,0
1429365,19,129,54,0
1429375,13,180,57,0
1429385,14,160,55,0
1429396,8,172,47,0
1429406,13,150,49,0
1429416,8,195,41,0
1429426,10,208,39,0
1429436,12,235,36,0
1429446,3,201,31,0
1429456,4,235,33,0
1429466,10,266,32,0
1429476,7,233,39,0
1429486,9,305,36,0
1429496,9,281,35,0
1429506,16,216,43,0
1429516,16,174,45,0
1429526,15,145,43,0
1429536,15,107,40,0
1429546,11,101,36,0
1429556,10,104,35,0
1429566,12,117,31,0
1429576,6,163,33,0
1429586,6,142,31,0
1429597,9,214,34,0
1429607,8,214,35,0
1429617,6,238,36,0
1429627,12,245,41,0
1429637,7,187,37,0
1429647,11,231,41,0
1429657,11,206,38,0
1429667,11,156,40,0
1429677,9,173,36,0
1429687,10,200,35,0
1429697,11,161,34,0
1429707,9,191,36,0
1429717,11,142,34,0
1429727,5,127,35,0
1429737,6,139,36,0
1429747,11,149,39,0
1429757,4,193,38,0
1429767,13,183,41,0
1429777,6,171,47,0
1429787,6,171,39,0
1429797,9,174,43,0
1429808,11,165,38,0
1429818,11,171,38,0
1429828,11,156,37,0
1429838,8,126,32,0
1429848,12,120,35,0
1429858,12,150,28,0
1429868,7,181,35,0
1429878,11,134,38,0
1429888,15,167,38,0
1429898,18,213,41,0
1429908,32,197,70,0
1429918,42,197,115,0
1429928,36,164,93,0
1429938,48,129,116,0
1429948,55,109,131,0
1429958,51,105,123,0
1429968,40,99,91,0
1429978,27,111,69,0
1429988,21,128,54,0
1429998,17,134,46,0
1430008,16,126,41,0
1430019,8,106,37,0
1430029,14,136,39,0
1430039,13,116,40,0
1430049,9,166,34,0
1430059,13,180,38,0
1430069,9,187,36,0
1430079,8,230,46,0
1430089,9,182,46,0
1430099,5,203,44,0
1430109,9,186,42,0
1430119,8,198,38,0
1430129,15,214,44,0
1430139,14,173,37,0
1430149,14,146,40,0
1430159,10,157,37,0
1430169,14,171,41,0
1430179,10,188,37,0
1430189,8,185,43,0
1430199,10,261,38,0
1430209,8,225,37,0
1430219,10,234,37,0
1430230,9,180,40,0
1430240,10,142,40,0
1430250,9,168,33,0
1430260,6,163,38,0
1430270,10,138,36,0
1430280,11,171,34,0
1430290,8,122,33,0
1430300,13,178,42,0
1430310,8,175,39,0
1430320,10,241,33,0
1430330,7,240,34,0
1430340,10,224,36,0
1430350,9,178,42,0
1430360,5,199,43,0
1430370,11,191,45,0
1430380,11,193,42,0
1430390,10,170,48,0
1430400,5,142,38,0
1430410,11,199,37,0
1430420,14,232,39,0
1430431,10,213,38,0
1430441,10,278,50,0
1430451,13,226,57,0
1430461,6,204,47,0
1430471,12,192,41,0
1430481,7,169,63,0
1430491,9,181,53,0
1430501,6,140,46,0
1430511,6,134,43,0
1430521,22,121,56,0
1430531,37,151,103,0
1430541,37,149,118,0
1430551,43,166,104,0
1430561,56,155,143,0
1430571,56,145,159,0
1430581,51,149,132,0
1430591,37,159,99,0
1430601,26,164,69,0
1430611,21,181,57,0
1430621,18,216,60,0
1430631,11,192,60,0
1430642,10,187,55,0
1430652,8,153,45,0
1430662,8,145,37,0
1430672,10,139,38,1000
1430682,5,111,39,800
1430692,10,106,41,0
1430702,7,186,43,0
1430712,9,177,49,0
1430722,12,238,43,0
1430732,5,197,46,0
1430742,14,185,41,0
1430752,14,181,44,0
1430762,19,168,39,0
1430772,11,148,54,0
1430782,12,196,49,0
1430792,13,150,47,0
1430802,10,137,47,0
1430812,9,112,44,0
1430822,11,143,43,0
1430832,9,143,38,0
1430842,10,152,52,0
1430853,11,150,44,0
1430863,12,116,39,0
1430873,13,98,45,0
1430883,10,84,41,0
1430893,12,112,48,0
1430903,7,120,50,0
1430913,9,105,42,0
1430923,10,171,42,0
1430933,12,147,47,0
1430943,9,226,38,0
1430953,8,184,37,0
1430963,9,145,49,0
1430973,5,144,49,0
1430983,10,134,43,0
1430993,15,106,52,0
1431003,9,78,46,0
1431013,13,116,56,0
1431023,16,124,54,0
1431033,10,202,45,0
1431043,12,167,44,0
1431054,8,189,41,0
1431064,8,176,38,0
1431074,12,180,30,0
1431084,8,153,34,0
1431094,8,121,34,0
1431104,5,126,36,0
1431114,11,116,36,0
1431124,12,116,30,0
1431134,11,94,33,0
1431144,14,104,42,0
1431154,29,108,76,0
1431164,41,106,116,0
1431174,32,103,95,0
1431184,41,125,117,0
1431194,61,142,137,0
1431204,58,205,129,0
1431214,46,171,95,0
1431224,33,171,71,0
1431234,25,191,57,0
1431244,20,168,47,0
1431254,17,147,42,0
1431265,13,151,44,0
1431275,12,138,40,0
1431285,10,118,40,0
1431295,8,132,40,0
1431305,10,113,33,0
1431315,6,184,33,0
1431325,8,181,34,0
1431335,8,166,33,0
1431345,3,140,35,0
1431355,8,135,31,0
1431365,7,135,42,0
1431375,14,171,42,0
1431385,15,132,47,0
1431395,15,132,44,0
1431405,13,157,44,0
1431415,9,156,44,0
1431425,14,166,37,0
1431435,9,143,35,0
1431445,7,151,46,0
1431455,10,152,50,0
1431465,13,130,50,0
1431476,12,145,51,0
1431486,10,233,45,0
1431496,11,246,45,0
1431506,7,312,38,0
1431516,10,238,40,0
1431526,8,281,30,0
1431536,10,226,31,0
1431546,8,317,34,0
1431556,11,371,40,0
1431566,5,376,36,0
1431576,11,405,39,0
1431586,7,291,43,0
1431596,8,311,46,0
1431606,12,316,43,0
1431616,6,265,39,0
1431626,6,229,45,0
1431636,13,176,50,0
1431646,13,317,44,0
1431656,10,308,42,0
1431666,11,305,44,0
1431676,11,246,47,0
1431687,13,199,49,0
1431697,7,193,48,0
1431707,12,223,43,0
1431717,12,240,41,0
1431727,13,204,43,0
1431737,13,247,38,0
1431747,11,245,53,0
1431757,7,307,57,0
1431767,16,290,50,0
1431777,20,323,52,0
1431787,25,260,74,0
1431797,34,202,124,0
1431807,25,180,103,0
1431817,43,239,136,0
1431827,49,279,148,0
1431837,44,223,138,0
1431847,36,228,107,0
1431857,28,349,89,0
1431867,19,286,84,0
1431877,21,352,66,0
1431888,13,379,55,0
1431898,12,303,59,0
1431908,15,317,51,0
1431918,11,323,49,0
1431928,10,281,55,0
1431938,11,304,48,0
1431948,12,292,46,0
1431958,13,210,59,0
1431968,12,168,58,0
1431978,8,137,56,0
1431988,16,214,56,0
1431998,11,214,61,0
1432008,13,281,58,0
1432018,16,252,56,0
1432028,9,235,59,0
1432038,9,230,58,0
1432048,9,200,57,0
1432058,8,179,62,0
1432068,10,300,66,0
1432078,11,414,65,0
1432088,9,408,56,0
1432099,8,329,50,0
1432109,4,259,60,0
1432119,10,273,51,0
1432129,11,240,48,0
1432139,9,229,55,0
1432149,10,164,46,0
1432159,7,262,49,0
1432169,9,255,47,0
1432179,7,299,44,801
1432189,11,348,38,0
1432199,7,282,44,0
1432209,11,228,45,0
1432219,10,160,44,0
1432229,9,227,42,0
1432239,10,307,47,0
1432249,11,281,47,0
1432259,9,247,42,0
1432269,12,241,42,0
1432279,12,303,54,0
1432289,14,258,54,0
1432299,10,284,58,0
1432310,13,227,52,0
1432320,8,331,57,0
1432330,12,408,52,0
1432340,6,410,46,0
1432350,12,534,50,0
1432360,11,396,54,0
1432370,9,324,59,0
1432380,9,297,71,0
1432390,11,278,60,0
1432400,29,341,74,0
1432410,36,344,127,0
1432420,32,389,110,0
1432430,39,356,122,0
1432440,52,273,147,0
1432450,60,242,135,0
1432460,44,245,98,0
1432470,29,366,79,0
1432480,21,319,73,0
1432490,18,287,65,0
1432500,18,311,57,0
1432511,14,372,60,0
1432521,14,318,69,0
1432531,11,319,64,0
1432541,13,297,60,0
1432551,10,341,67,0
1432561,14,318,58,0
1432571,9,315,54,0
1432581,12,291,55,0
1432591,12,257,48,0
1432601,12,247,43,0
1432611,12,239,45,0
1432621,14,287,47,0
1432631,16,285,43,0
1432641,17,243,47,0
1432651,12,359,49,0
1432661,16,322,54,0
1432671,11,401,55,0
1432681,14,344,50,0
1432691,12,285,46,0
1432701,13,226,54,0
1432711,10,204,54,0
1432722,10,215,48,0
1432732,14,309,44,0
1432742,12,313,53,0
1432752,7,318,48,0
1432762,5,377,43,0
1432772,9,319,48,0
1432782,7,301,55,0
1432792,12,272,62,0
1432802,9,230,63,0
1432812,7,192,84,0
1432822,10,190,68,0
1432832,7,202,66,0
1432842,10,184,76,0
1432852,10,202,72,0
1432862,8,280,68,0
1432872,6,252,55,0
1432882,14,290,52,0
1432892,8,345,67,0
1432902,9,299,52,0
1432912,12,294,44,0
1432922,12,267,48,0
1432933,9,235,51,0
1432943,10,272,52,0
1432953,8,250,53,0
1432963,9,247,53,0
1432973,8,325,49,0
1432983,7,274,54,0
1432993,8,280,58,0
1433003,15,313,54,0
1433013,39,272,74,0
1433023,40,286,112,0
1433033,39,277,92,0
1433043,53,230,124,0
1433053,63,243,130,0
1433063,48,207,107,0
1433073,37,309,92,0
1433083,26,298,89,0
1433093,23,257,72,0
1433103,15,370,67,0
1433113,18,313,70,0
1433123,11,300,82,0
1433133,13,328,72,0
1433144,12,374,84,0
1433154,7,319,73,0
1433164,14,251,75,0
1433174,10,346,68,0
1433184,8,295,65,0
1433194,15,292,76,0
1433204,14,259,64,0
1433214,13,271,58,0
1433224,13,270,56,0
1433234,13,302,59,0
1433244,14,291,69,0
1433254,15,270,63,0
1433264,12,225,58,0
1433274,17,373,64,0
1433284,12,370,60,0
1433294,10,390,66,0
1433304,12,307,59,0
1433314,10,331,61,0
1433324,14,335,63,0
1433334,12,265,59,0
1433345,8,232,66,0
1433355,11,189,60,0
1433365,14,261,64,0
1433375,14,302,74,0
1433385,11,281,62,0
1433395,10,277,67,0
1433405,11,264,64,0
1433415,5,311,71,0
1433425,10,290,64,0
1433435,9,305,52,0
1433445,16,310,44,0
1433455,9,268,48,0
1433465,12,315,56,0
1433475,12,287,51,0
1433485,7,262,59,0
1433495,7,253,51,0
1433505,7,426,45,0
1433515,13,387,51,0
1433525,11,378,50,0
1433535,9,376,54,0
1433545,14,319,67,0
1433556,10,323,154,0
1433566,14,316,201,0
1433576,8,318,218,0
1433586,12,310,188,0
1433596,13,376,146,0
1433606,27,350,165,0
1433616,34,326,183,0
1433626,29,254,149,0
1433636,44,245,159,0
1433646,54,237,137,0
1433656,48,276,99,0
1433666,36,271,124,0
1433676,26,254,114,0
1433686,19,245,116,0
1433696,19,296,128,0
1433706,13,270,163,0
1433716,13,295,150,0
1433726,13,327,116,0
1433736,13,318,106,0
1433746,11,294,92,0
1433756,15,335,87,0
1433767,11,280,106,0
1433777,13,226,90,0
1433787,12,329,79,0
1433797,15,261,89,0
1433807,16,233,74,0
1433817,13,298,71,0
1433827,19,274,55,0
1433837,16,246,57,0
1433847,18,259,49,0
1433857,13,293,51,0
1433867,11,360,63,0
1433877,10,313,72,0
1433887,13,335,72,0
1433897,13,292,101,0
1433907,16,295,102,0
1433917,19,293,110,0
1433927,15,309,108,0
1433937,15,348,102,0
1433947,16,260,93,0
1433957,17,341,86,0
1433968,15,303,92,0
1433978,9,340,83,0
1433988,9,308,89,0
1433998,15,304,71,0
1434008,12,350,59,0
1434018,9,333,85,0
1434028,11,305,69,0
1434038,14,274,77,0
1434048,14,287,98,0
1434058,15,221,109,0
1434068,13,202,110,0
1434078,12,227,104,0
1434088,12,275,91,0
1434098,16,255,85,0
1434108,9,229,93,0
1434118,10,233,92,0
1434128,12,249,70,0
1434138,11,229,60,0
1434148,13,259,79,0
1434158,9,291,98,0
1434168,9,357,108,0
1434179,19,384,141,0
1434189,33,307,110,0
1434199,34,262,86,0
1434209,30,266,85,0
1434219,46,256,72,0
1434229,46,270,117,0
1434239,33,218,124,0
1434249,28,211,104,0
1434259,21,197,87,0
1434269,16,223,79,0
1434279,14,264,75,0
1434289,15,240,76,0
1434299,16,284,102,0
1434309,14,253,119,0
1434319,8,219,123,0
1434329,11,203,97,0
1434339,15,289,100,0
1434349,13,264,101,0
1434359,11,309,123,0
1434369,13,280,107,0
1434379,15,250,77,0
1434390,13,350,79,0
1434400,16,315,107,0
1434410,16,287,92,0
1434420,18,303,77,0
1434430,15,307,82,0
1434440,16,327,73,0
1434450,12,255,103,0
1434460,14,241,96,0
1434470,9,291,97,0
1434480,12,276,90,0
1434490,12,298,77,0
1434500,15,235,70,0
1434510,14,224,72,0
1434520,12,252,85,0
1434530,10,283,81,0
1434540,16,235,93,0
1434550,11,218,97,0
1434560,16,285,86,0
1434570,8,296,81,0
1434580,14,275,88,0
1434591,9,279,113,0
1434601,20,274,94,0
1434611,19,308,89,0
1434621,13,258,97,0
1434631,24,252,129,0
1434641,17,262,173,0
1434651,19,264,151,0
1434661,18,308,151,0
1434671,13,289,124,0
1434681,17,313,142,0
1434691,16,308,121,0
1434701,13,301,101,0
1434711,11,264,110,0
1434721,13,319,126,0
1434731,9,335,131,0
1434741,13,358,129,0
1434751,10,340,121,0
1434761,28,282,100,0
1434771,36,317,143,0
1434781,32,324,122,0
1434791,47,290,122,0
1434802,55,365,198,0
1434812,52,289,210,0
1434822,33,216,169,0
1434832,25,214,142,0
1434842,22,243,120,0
1434852,18,197,118,0
1434862,15,163,108,0
1434872,15,157,98,0
1434882,9,198,80,0
1434892,8,177,101,0
1434902,15,255,91,0
1434912,12,264,93,0
1434922,17,304,102,0
1434932,18,372,113,0
1434942,17,467,131,0
1434952,14,351,121,0
1434962,16,304,101,0
1434972,13,241,109,0
1434982,14,282,123,0
1434992,20,290,119,0
1435003,16,313,93,0
1435013,15,328,113,0
1435023,20,291,91,0
1435033,15,361,95,0
1435043,19,324,125,0
1435053,10,302,127,0
1435063,14,328,134,0
1435073,14,294,147,0
1435083,10,261,132,0
1435093,11,218,127,0
1435103,10,286,115,0
1435113,10,249,107,0
1435123,11,256,106,0
1435133,11,259,148,0
1435143,12,218,159,0
1435153,10,265,122,0
1435163,11,236,130,0
1435173,14,277,118,0
1435183,10,293,101,802
1435193,11,278,105,0
1435203,14,241,111,0
1435214,13,224,97,0
1435224,12,298,109,0
1435234,14,317,165,0
1435244,14,372,176,0
1435254,15,341,175,0
1435264,12,318,172,0
1435274,16,366,166,0
1435284,16,371,132,0
1435294,13,328,122,0
1435304,13,283,107,0
1435314,6,354,109,0
1435324,13,291,122,0
1435334,13,282,153,0
1435344,20,322,170,0
1435354,32,314,139,0
1435364,30,385,130,0
1435374,35,337,167,0
1435384,48,365,163,0
1435394,55,306,128,0
1435404,44,364,120,0
1435414,32,311,93,0
1435425,27,285,125,0
1435435,16,258,101,0
1435445,14,338,87,0
1435455,14,377,103,0
1435465,18,344,108,0
1435475,19,291,131,0
1435485,12,286,124,0
1435495,15,293,115,0
1435505,10,255,140,0
1435515,8,274,125,0
1435525,6,285,107,0
1435535,13,301,154,0
1435545,11,356,180,0
1435555,16,352,156,0
1435565,15,256,133,0
1435575,14,280,110,0
1435585,19,303,111,0
1435595,16,254,113,0
1435605,15,258,136,0
1435615,14,299,129,0
1435626,16,298,146,0
1435636,19,229,135,0
1435646,16,232,168,0
1435656,11,262,192,0
1435666,11,292,160,0
1435676,13,328,139,0
1435686,15,280,131,0
1435696,20,325,173,0
1435706,15,329,171,0
1435716,16,244,156,0
1435726,16,248,119,0
1435736,13,300,130,0
1435746,15,394,122,0
1435756,10,331,117,0
1435766,14,296,117,0
1435776,13,292,122,0
1435786,12,238,125,0
1435796,15,251,125,0
1435806,13,268,143,0
1435816,13,247,147,0
1435826,8,386,138,0
1435837,18,375,146,0
1435847,12,312,126,0
1435857,17,273,108,0
1435867,16,351,93,0
1435877,17,349,89,0
1435887,14,333,107,0
1435897,18,288,108,0
1435907,12,249,80,0
1435917,15,310,73,0
1435927,18,335,78,0
1435937,22,329,89,0
1435947,30,294,182,0
1435957,24,381,178,0
1435967,29,359,243,0
1435977,43,359,184,0
1435987,40,338,166,0
1435997,34,305,135,0
1436007,21,229,118,0
1436017,19,278,103,0
1436027,19,252,117,0
1436038,16,331,143,0
1436048,10,258,113,0
1436058,11,298,84,0
1436068,12,277,72,0
1436078,12,350,60,0
1436088,10,270,77,0
1436098,9,303,111,0
1436108,8,301,128,0
1436118,14,304,143,0
1436128,15,253,127,0
1436138,13,259,112,0
1436148,17,252,98,0
1436158,13,241,94,0
1436168,13,229,101,0
1436178,18,274,110,0
1436188,17,262,94,0
1436198,12,308,77,0
1436208,12,338,74,0
1436218,8,334,66,0
1436228,11,315,65,0
1436238,7,294,72,0
1436249,11,263,65,0
1436259,10,258,66,0
1436269,10,261,72,0
1436279,8,193,75,0
1436289,12,230,73,0
1436299,13,227,72,0
1436309,10,267,73,0
1436319,12,274,86,0
1436329,12,242,81,0
1436339,9,265,80,0
1436349,13,235,102,0
1436359,15,223,97,0
1436369,10,249,81,0
1436379,11,309,81,0
1436389,15,317,76,0
1436399,15,323,104,0
1436409,11,385,114,0
1436419,13,390,127,0
1436429,10,342,106,0
1436439,12,347,110,0
1436449,12,330,122,0
1436460,6,286,105,0
1436470,7,306,107,0
1436480,5,318,176,0
1436490,12,300,167,0
1436500,7,362,132,0
1436510,9,310,114,0
1436520,10,277,105,0
1436530,21,273,145,0
1436540,34,263,212,0
1436550,26,257,202,0
1436560,41,324,173,0
1436570,51,327,240,0
1436580,50,403,268,0
1436590,39,439,232,0
1436600,32,333,167,0
1436610,23,308,132,0
1436620,19,311,135,0
1436630,11,263,129,0
1436640,12,241,140,0
1436650,17,293,212,0
1436661,18,275,226,0
1436671,17,241,185,0
1436681,12,191,192,0
1436691,12,287,197,0
1436701,9,271,171,0
1436711,8,246,130,0
1436721,6,211,153,0
1436731,5,331,248,0
1436741,12,318,336,0
1436751,16,383,405,0
1436761,17,339,389,0
1436771,12,298,300,0
1436781,15,287,216,0
1436791,11,272,173,0
1436801,14,294,150,0
1436811,11,317,216,0
1436821,9,291,252,0
1436831,11,264,208,0
1436841,13,255,167,0
1436851,17,316,159,0
1436861,10,356,142,0
1436872,5,310,134,0
1436882,12,308,115,0
1436892,14,259,101,0
1436902,14,374,88,0
1436912,11,320,88,0
1436922,7,331,76,0
1436932,12,267,60,0
1436942,6,253,59,0
1436952,10,231,61,0
1436962,6,295,53,0
1436972,9,244,49,0
1436982,9,265,59,0
1436992,7,226,55,0
1437002,7,231,56,0
1437012,16,252,61,0
1437022,10,264,54,0
1437032,9,304,50,0
1437042,10,321,53,0
1437052,11,262,50,0
1437062,14,237,49,0
1437073,12,219,48,0
1437083,11,200,52,0
1437093,14,237,52,0
1437103,12,231,48,0
1437113,8,230,49,0
1437123,15,256,51,0
1437133,13,218,61,0
1437143,20,211,58,0
1437153,32,201,108,0
1437163,39,158,124,0
1437173,34,152,106,0
1437183,51,202,125,1001
1437193,55,163,122,0
1437203,41,157,104,0
1437213,30,208,83,0
1437223,22,234,70,0
1437233,20,232,58,0
1437243,17,192,60,0
1437253,15,175,57,0
1437263,10,184,53,0
1437273,12,177,55,0
1437284,11,230,49,0
1437294,6,234,46,0
1437304,10,349,45,0
1437314,5,304,39,0
1437324,6,289,42,0
1437334,10,222,40,0
1437344,9,158,41,0
1437354,7,147,42,0
1437364,12,188,54,0
1437374,11,170,42,0
1437384,13,161,36,0
1437394,14,294,32,0
1437404,9,243,33,0
1437414,15,256,32,0
1437424,12,290,39,0
1437434,6,227,32,0
1437444,6,272,32,0
1437454,6,305,32,0
1437464,15,226,37,0
1437474,8,284,36,0
1437484,8,238,37,0
1437495,8,247,38,0
1437505,11,272,29,0
1437515,14,266,31,0
1437525,11,257,39,0
1437535,8,202,35,0
1437545,8,183,42,0
1437555,10,166,41,0
1437565,10,172,35,0
1437575,7,163,33,0
1437585,10,203,32,0
1437595,10,201,34,0
1437605,10,164,34,0
1437615,8,154,55,0
1437625,9,161,45,0
1437635,8,125,48,0
1437645,8,194,47,0
1437655,9,180,46,0
1437665,13,254,45,0
1437675,10,256,39,0
1437685,11,330,38,0
1437695,11,248,43,0
1437706,8,330,39,0
1437716,9,245,39,0
1437726,11,193,38,0
1437736,9,153,40,0
1437746,13,130,39,0
1437756,6,104,52,0
1437766,14,99,49,0
1437776,24,102,76,0
1437786,35,182,126,0
1437796,31,257,107,0
1437806,45,340,121,0
1437816,50,260,144,0
1437826,50,197,122,0
1437836,40,202,92,0
1437846,29,172,69,0
1437856,18,131,58,0
1437866,16,98,44,0
1437876,13,96,38,0
1437886,12,82,35,0
1437896,7,66,38,0
1437907,15,68,36,0
1437917,10,97,36,0
1437927,8,140,43,0
1437937,12,150,40,0
1437947,9,164,38,0
1437957,11,230,50,0
1437967,5,239,52,0
1437977,12,177,76,0
1437987,19,155,70,0
1437997,17,120,74,0
1438007,15,100,70,0
1438017,19,105,72,0
1438027,17,118,65,0
1438037,11,138,56,0
1438047,14,138,49,0
1438057,11,185,42,0
1438067,8,182,42,0
1438077,11,199,42,0
1438087,7,175,42,0
1438097,9,143,39,0
1438107,9,122,38,0
1438118,10,121,37,0
1438128,7,186,39,0
1438138,7,223,40,0
1438148,6,300,40,0
1438158,6,225,36,0
1438168,8,170,33,0
1438178,8,140,39,0
1438188,9,131,34,0
1438198,5,127,34,0
1438208,7,135,37,0
1438218,7,143,40,0
1438228,6,124,50,0
1438238,9,126,43,0
1438248,6,103,39,0
1438258,7,91,43,0
1438268,8,98,39,0
1438278,6,134,45,0
1438288,13,109,45,0
1438298,16,112,44,0
1438308,9,120,41,0
1438318,11,132,36,0
1438329,10,164,42,0
1438339,11,140,42,0
1438349,12,147,35,0
1438359,10,207,38,0
1438369,11,166,44,0
1438379,14,220,53,0
1438389,21,225,52,0
1438399,29,257,79,0
1438409,37,211,118,0
1438419,34,202,97,0
1438429,41,163,118,0
1438439,52,153,133,0
1438449,51,150,127,700
1438459,35,179,105,0
1438469,26,176,80,0
1438479,18,196,71,0
1438489,17,165,62,0
1438499,14,169,52,0
1438509,16,182,47,0
1438519,14,226,42,0
1438529,14,163,35,0
1438540,12,173,34,0
1438550,10,179,37,0
1438560,14,197,32,0
1438570,11,168,34,0
1438580,5,244,35,0
1438590,12,203,34,0
1438600,11,252,44,0
1438610,14,239,39,0
1438620,15,189,39,0
1438630,17,207,42,0
1438640,18,177,40,0
1438650,12,151,34,0
1438660,12,117,28,0
1438670,10,196,35,0
1438680,11,222,36,0
1438690,13,298,40,0
1438700,9,341,34,0
1438710,8,233,43,0
1438720,9,245,42,0
1438730,11,245,42,0
1438741,10,178,40,0
1438751,12,136,41,0
1438761,9,103,45,0
1438771,8,93,43,0
1438781,10,95,42,0
1438791,12,92,40,0
1438801,10,129,39,0
1438811,7,148,44,0
1438821,6,228,42,0
1438831,12,198,42,0
1438841,6,254,39,0
1438851,10,224,39,0
1438861,10,231,45,0
1438871,6,176,41,0
1438881,10,124,41,0
1438891,7,109,36,0
1438901,8,92,38,0
1438911,10,104,38,0
1438921,11,105,40,0
1438931,12,129,34,0
1438941,6,134,41,0
1438952,7,149,33,0
1438962,7,151,41,0
1438972,9,109,46,0
1438982,10,140,50,0
1438992,12,125,56,0
1439002,12,169,55,0
1439012,27,149,77,0
1439022,43,114,132,0
1439032,37,99,124,0
1439042,41,115,120,0
1439052,56,123,148,0
1439062,51,128,148,0
1439072,42,124,115,0
1439082,26,184,91,0
1439092,23,158,71,0
1439102,22,154,68,0
1439112,19,134,62,0
1439122,12,115,60,0
1439132,11,101,56,0
1439142,12,86,50,0
1439152,6,135,46,0
1439163,9,141,40,0
1439173,10,136,38,0
1439183,9,179,45,0
1439193,4,181,54,0
1439203,6,142,47,0
1439213,6,135,34,0
1439223,10,122,38,0
1439233,13,109,40,0
1439243,16,85,54,0
1439253,18,120,58,0
1439263,14,154,52,0
1439273,9,163,56,0
1439283,14,134,53,0
1439293,8,105,50,0
1439303,12,136,46,0
1439313,12,135,50,0
1439323,9,166,46,0
1439333,10,146,51,0
1439343,11,151,54,0
1439353,10,122,57,0
1439364,13,110,54,0
1439374,13,103,47,0
1439384,10,112,45,0
1439394,13,184,48,0
1439404,8,258,49,0
1439414,6,424,55,0
1439424,12,322,53,0
1439434,9,258,50,0
1439444,9,215,56,0
1439454,12,225,55,0
1439464,11,224,45,0
1439474,9,185,41,0
1439484,8,174,48,0
1439494,13,183,47,0
1439504,9,163,48,0
1439514,13,207,41,0
1439524,11,222,40,0
1439534,9,317,40,0
1439544,8,245,43,0
1439554,10,266,44,0
1439564,8,252,49,0
1439575,7,202,46,0
1439585,12,174,51,0
1439595,9,165,43,0
1439605,11,201,35,0
1439615,17,200,41,0
1439625,12,304,44,0
1439635,20,345,46,0
1439645,30,318,71,0
1439655,36,387,121,0
1439665,31,332,112,0
1439675,40,406,132,0
1439685,56,386,150,0
1439695,47,323,128,0
1439705,35,271,102,0
1439715,24,208,78,0
1439725,24,214,66,0
1439735,12,230,59,0
1439745,12,380,53,0
1439755,10,335,63,0
1439765,9,342,65,0
1439775,12,285,74,0
1439786,11,238,58,0
1439796,8,201,39,0
1439806,12,176,42,0
1439816,8,291,46,0
1439826,7,311,39,0
1439836,8,313,58,0
1439846,6,240,48,0
1439856,12,242,40,0
1439866,10,179,46,0
1439876,13,206,56,0
1439886,18,209,51,0
1439896,13,240,56,0
1439906,8,323,53,0
1439916,13,272,47,0
1439926,11,282,52,0
1439936,8,260,52,0
1439946,7,250,48,701
1439956,11,244,51,0
1439966,10,217,45,0
1439976,8,336,49,0
1439986,7,327,50,0
1439997,13,356,53,0
1440007,10,364,54,0
1440017,9,357,45,0
1440027,10,323,42,0
1440037,9,343,37,0
1440047,10,354,40,0
1440057,8,290,45,0
1440067,7,352,34,0
1440077,11,315,40,0
1440087,7,279,47,0
1440097,14,223,44,0
1440107,9,313,46,0
1440117,13,280,44,0
1440127,10,276,42,0
1440137,11,324,43,0
1440147,11,345,49,0
1440157,7,332,48,0
1440167,9,275,44,0
1440177,12,241,44,0
1440187,8,278,41,0
1440198,8,271,43,0
1440208,6,305,40,0
1440218,11,286,51,0
1440228,13,252,46,0
1440238,14,310,51,0
1440248,18,268,52,0
1440258,27,297,78,0
1440268,33,248,112,0
1440278,29,245,104,0
1440288,41,246,129,0
1440298,51,248,157,0
1440308,46,324,138,0
1440318,35,316,112,0
1440328,23,298,84,0
1440338,23,309,72,0
1440348,14,350,57,0
1440358,13,299,46,0
1440368,15,323,48,0
1440378,11,323,50,0
1440388,12,363,42,0
1440398,9,327,43,0
1440409,10,445,43,0
1440419,6,385,42,0
1440429,12,484,43,0
1440439,11,411,55,0
1440449,7,399,61,0
1440459,9,419,56,0
1440469,10,323,46,0
1440479,15,336,51,0
1440489,14,278,48,0
1440499,13,228,52,0
1440509,14,177,51,0
1440519,13,166,54,0
1440529,14,165,49,0
1440539,12,167,65,0
1440549,11,188,59,0
1440559,9,241,49,0
1440569,9,227,55,0
1440579,6,235,61,0
1440589,10,198,44,0
1440599,8,279,51,0
1440609,10,263,54,0
1440620,14,267,50,0
1440630,15,351,50,0
1440640,12,345,50,0
1440650,12,461,49,0
1440660,10,450,45,0
1440670,13,404,43,0
1440680,12,349,37,0
1440690,13,342,48,0
1440700,9,305,52,0
1440710,13,250,46,0
1440720,13,255,55,0
1440730,10,223,59,0
1440740,9,244,60,0
1440750,4,207,56,0
1440760,11,244,55,0
1440770,8,219,52,0
1440780,8,257,47,0
1440790,9,255,42,0
1440800,10,277,37,0
1440810,11,295,47,0
1440820,11,328,64,0
1440831,10,369,65,0
1440841,17,346,60,0
1440851,32,317,83,0
1440861,37,402,108,0
1440871,35,370,94,0
1440881,51,305,104,0
1440891,61,307,146,0
1440901,53,321,124,0
1440911,36,383,102,0
1440921,24,324,78,0
1440931,18,266,70,0
1440941,12,328,57,0
1440951,11,301,49,0
1440961,9,347,61,0
1440971,11,283,58,0
1440981,6,277,56,0
1440991,10,261,57,0
1441001,11,289,53,0
1441011,9,292,49,0
1441021,7,306,49,0
1441032,7,331,58,0
1441042,9,316,64,0
1441052,9,338,57,0
1441062,12,392,61,0
1441072,17,309,54,0
1441082,16,286,60,0
1441092,12,344,72,0
1441102,13,331,55,0
1441112,9,314,47,0
1441122,10,350,56,0
1441132,12,307,49,0
1441142,7,290,50,0
1441152,11,267,42,0
1441162,7,220,49,0
1441172,12,275,48,0
1441182,10,264,38,0
1441192,12,302,46,0
1441202,6,338,45,0
1441212,11,290,47,0
1441222,10,252,47,0
1441232,7,259,52,0
1441243,10,282,48,0
1441253,11,259,51,0
1441263,12,232,50,0
1441273,10,280,52,0
1441283,14,294,50,0
1441293,12,260,45,0
1441303,15,278,42,0
1441313,13,313,39,0
1441323,12,283,47,0
1441333,8,304,55,0
1441343,12,384,69,0
1441353,12,311,55,0
1441363,16,262,50,0
1441373,11,261,60,0
1441383,11,220,58,0
1441393,11,213,66,0
1441403,9,233,55,0
1441413,16,275,65,0
1441423,16,253,57,0
1441433,26,237,90,0
1441443,38,275,145,0
1441454,30,268,122,0
1441464,34,245,132,0
1441474,50,235,156,0
1441484,50,264,132,0
1441494,38,255,91,0
1441504,28,261,71,0
1441514,17,247,56,0
1441524,17,267,50,0
1441534,18,280,53,0
1441544,12,313,50,0
1441554,8,332,50,0
1441564,10,322,54,0
1441574,13,349,57,0
1441584,8,294,58,0
1441594,13,342,64,0
1441604,11,372,59,0
1441614,10,371,47,0
1441624,11,306,46,0
1441634,6,323,65,0
1441644,10,364,56,0
1441655,13,275,61,0
1441665,15,292,57,0
1441675,14,275,56,0
1441685,15,278,59,0
1441695,18,319,46,0
1441705,9,330,42,0
1441715,10,356,48,0
1441725,9,334,52,0
1441735,9,305,53,0
1441745,9,330,46,0
1441755,9,334,55,0
1441765,7,345,48,0
1441775,6,447,48,0
1441785,8,354,45,0
1441795,15,294,54,0
1441805,13,314,58,0
1441815,14,360,56,0
1441825,8,300,53,0
1441835,11,265,54,0
1441845,10,250,51,0
1441855,13,323,48,0
1441866,14,296,54,0
1441876,11,236,46,0
1441886,8,306,41,0
1441896,14,257,40,0
1441906,16,250,47,0
1441916,13,314,60,0
1441926,15,294,56,0
1441936,12,307,48,0
1441946,9,280,47,0
1441956,10,245,40,0
1441966,11,278,52,0
1441976,10,244,64,0
1441986,11,224,78,0
1441996,8,344,99,0
1442006,12,304,89,0
1442016,25,324,105,0
1442026,31,367,129,0
1442036,27,417,104,0
1442046,44,354,99,0
1442056,53,307,105,0
1442066,42,284,122,0
1442077,28,310,100,0
1442087,20,263,89,0
1442097,21,247,74,0
1442107,14,264,80,0
1442117,9,268,69,0
1442127,12,293,67,0
1442137,13,273,58,0
1442147,14,280,70,0
1442157,15,309,71,0
1442167,13,335,57,0
1442177,12,318,60,0
1442187,17,341,83,0
1442197,15,392,72,0
1442207,10,365,65,0
1442217,9,372,57,0
1442227,18,367,69,0
1442237,19,364,74,0
1442247,19,327,90,0
1442257,10,282,84,0
1442267,12,293,78,0
1442278,16,376,151,0
1442288,9,392,274,0
1442298,13,389,324,0
1442308,17,330,304,0
1442318,12,343,219,0
1442328,13,261,169,0
1442338,11,298,146,0
1442348,14,391,166,0
1442358,9,361,169,0
1442368,12,300,113,0
1442378,12,274,182,0
1442388,14,268,166,0
1442398,16,246,132,0
1442408,22,339,175,0
1442418,19,337,148,0
1442428,16,291,117,0
1442438,20,257,135,0
1442448,15,267,139,0
1442458,12,251,145,0
1442468,12,258,193,0
1442478,8,264,173,0
1442489,14,248,181,0
1442499,13,269,142,0
1442509,12,239,118,0
1442519,10,299,102,0
1442529,10,291,85,0
1442539,9,364,91,0
1442549,12,268,107,0
1442559,10,294,100,0
1442569,17,311,97,0
1442579,14,355,87,0
1442589,17,382,119,0
1442599,28,435,197,0
1442609,29,375,189,0
1442619,31,312,204,0
1442629,40,317,207,0
1442639,40,344,179,0
1442649,45,324,144,0
1442659,29,298,127,0
1442669,24,386,137,0
1442679,23,324,129,0
1442689,16,327,116,0
1442700,19,281,111,0
1442710,14,302,106,0
1442720,10,315,94,0
1442730,11,252,119,0
1442740,14,339,130,0
1442750,15,323,175,0
1442760,15,351,184,0
1442770,10,346,161,0
1442780,10,366,131,0
1442790,16,349,129,0
1442800,12,330,155,0
1442810,9,343,111,0
1442820,17,381,111,0
1442830,10,403,107,0
1442840,20,414,114,0
1442850,17,370,124,0
1442860,16,329,109,0
1442870,16,355,162,0
1442880,19,296,142,0
1442890,19,254,141,0
1442901,16,256,121,0
1442911,15,345,135,0
1442921,12,374,119,0
1442931,14,396,138,0
1442941,13,334,122,0
1442951,12,313,106,702
1442961,14,363,77,0
1442971,13,304,63,0
1442981,13,270,80,0
1442991,14,269,91,0
1443001,15,242,81,0
1443011,13,286,83,0
1443021,13,300,83,0
1443031,10,261,84,0
1443041,14,249,97,0
1443051,18,322,110,0
1443061,11,367,100,0
1443071,17,457,120,0
1443081,12,390,119,0
1443091,12,344,129,0
1443101,12,376,124,0
1443112,8,368,108,0
1443122,16,438,137,0
1443132,14,482,128,0
1443142,13,485,123,0
1443152,16,382,148,0
1443162,17,330,154,0
1443172,17,400,184,0
1443182,35,436,147,0
1443192,35,375,120,0
1443202,37,335,122,0
1443212,45,298,157,0
1443222,46,254,187,0
1443232,41,229,144,0
1443242,30,212,113,0
1443252,31,253,131,0
1443262,24,378,120,0
1443272,19,362,101,0
1443282,14,413,113,0
1443292,17,380,140,0
1443302,15,305,164,0
1443313,16,345,146,0
1443323,15,323,184,0
1443333,14,279,173,0
1443343,16,349,182,0
1443353,14,364,205,0
1443363,13,375,167,0
1443373,12,306,167,0
1443383,15,258,133,0
1443393,21,283,128,0
1443403,18,225,133,0
1443413,19,257,130,0
1443423,12,402,151,0
1443433,11,343,132,0
1443443,15,336,107,0
1443453,15,334,95,0
1443463,9,317,134,0
1443473,13,247,139,0
1443483,9,262,109,0
1443493,9,330,101,0
1443503,13,301,91,0
1443513,8,266,87,0
1443524,13,309,91,0
1443534,13,254,75,0
1443544,11,227,83,0
1443554,8,226,113,0
1443564,10,218,101,0
1443574,11,283,75,0
1443584,14,365,61,0
1443594,14,294,83,0
1443604,12,318,81,0
1443614,11,329,137,0
1443624,14,395,129,0
1443634,13,335,122,0
1443644,15,254,113,0
1443654,8,350,136,0
1443664,13,364,149,0
1443674,9,309,116,0
1443684,11,290,99,0
1443694,14,358,98,0
1443704,15,304,90,0
1443714,10,309,114,0
1443725,11,286,106,0
1443735,16,236,84,0
1443745,19,315,72,0
1443755,19,270,67,0
1443765,29,279,74,0
1443775,40,320,128,0
1443785,33,341,139,0
1443795,33,317,131,0
1443805,47,260,150,0
1443815,54,238,183,0
1443825,43,277,172,0
1443835,32,243,144,0
1443845,21,282,130,0
1443855,22,285,132,0
1443865,21,348,108,0
1443875,15,326,102,0
1443885,14,315,153,0
1443895,8,372,175,0
1443905,15,310,183,0
1443915,12,346,202,0
1443925,14,340,150,0
1443936,14,369,105,0
1443946,8,318,117,0
1443956,10,308,144,0
1443966,14,315,122,0
1443976,11,254,89,0
1443986,10,229,89,0
1443996,8,240,125,0
1444006,14,269,116,0
1444016,11,243,116,0
1444026,14,247,107,0
1444036,9,233,105,0
1444046,13,258,99,0
1444056,12,268,80,0
1444066,13,257,75,0
1444076,15,240,65,0
1444086,7,297,66,0
1444096,14,305,68,0
1444106,10,363,66,0
1444116,12,340,94,0
1444126,7,269,80,0
1444136,9,327,67,0
1444147,10,306,56,0
1444157,11,266,49,0
1444167,7,280,48,0
1444177,9,270,51,0
1444187,11,336,45,0
1444197,13,325,47,0
1444207,7,244,54,0
1444217,8,204,50,0
1444227,7,162,42,0
1444237,13,156,41,0
1444247,7,141,50,0
1444257,8,210,54,0
1444267,12,223,49,0
1444277,11,274,67,0
1444287,12,217,59,0
1444297,12,219,64,0
1444307,14,182,55,0
1444317,10,148,63,0
1444327,11,120,55,0
1444337,11,106,63,0
1444347,10,138,65,0
1444358,14,200,71,0
1444368,20,235,82,0
1444378,37,254,101,0
1444388,41,203,131,0
1444398,33,168,107,0
1444408,48,141,125,0
1444418,48,109,130,0
1444428,41,93,101,0
1444438,30,120,83,0
1444448,24,254,75,0
1444458,20,287,63,0
1444468,13,386,58,0
1444478,16,326,45,0
1444488,10,285,42,0
1444498,9,212,41,0
1444508,12,156,48,0
1444518,9,202,45,0
1444528,14,186,44,0
1444538,8,189,54,0
1444548,8,201,52,0
1444559,9,282,49,0
1444569,11,219,45,0
1444579,11,187,38,0
1444589,9,150,40,0
1444599,11,167,45,0
1444609,12,222,53,0
1444619,13,232,52,0
1444629,12,356,50,0
1444639,9,299,49,0
1444649,10,265,40,0
1444659,7,247,43,0
1444669,7,227,57,0
1444679,9,163,61,0
1444689,6,141,55,0
1444699,15,125,56,0
1444709,15,110,43,0
1444719,10,125,38,0
1444729,10,116,37,0
1444739,7,110,39,0
1444749,11,130,37,0
1444759,11,203,43,0
1444770,15,182,52,0
1444780,10,194,50,0
1444790,9,165,49,0
1444800,8,118,41,0
1444810,9,89,39,0
1444820,15,75,40,0
1444830,9,65,33,0
1444840,12,55,36,0
1444850,13,148,46,0
1444860,12,146,60,0
1444870,9,249,57,0
1444880,10,179,66,0
1444890,12,161,65,0
1444900,6,143,54,0
1444910,10,163,44,0
1444920,14,125,37,0
1444930,8,140,41,0
1444940,6,108,44,0
1444950,12,105,48,1001
1444960,13,100,43,0
1444970,24,84,55,0
1444981,36,83,76,0
1444991,33,71,103,0
1445001,35,75,86,0
1445011,52,101,134,0
1445021,57,112,151,0
1445031,44,141,120,0
1445041,32,127,101,0
1445051,23,105,76,0
1445061,18,96,66,0
1445071,21,85,55,0
1445081,13,71,62,0
1445091,18,63,56,0
1445101,15,76,60,0
1445111,14,89,55,0
1445121,15,105,56,0
1445131,16,138,51,0
1445141,10,192,58,0
1445151,13,168,55,0
1445161,9,197,47,0
1445171,10,177,43,0
1445182,10,163,51,0
1445192,9,220,49,0
1445202,11,253,41,0
1445212,14,278,46,0
1445222,9,218,58,0
1445232,10,212,59,0
1445242,11,224,54,0
1445252,12,237,51,0
1445262,10,240,49,0
1445272,4,206,48,0
1445282,8,193,53,0
1445292,7,173,42,0
1445302,13,167,51,0
1445312,11,189,45,0
1445322,7,177,55,0
1445332,10,205,56,0
1445342,6,181,51,0
1445352,10,176,58,0
1445362,13,175,58,0
1445372,12,182,52,0
1445382,15,186,54,0
1445393,10,160,47,0
1445403,12,131,45,0
1445413,12,120,42,0
1445423,10,153,50,0
1445433,8,211,51,0
1445443,7,174,48,0
1445453,5,239,46,0
1445463,10,239,42,0
1445473,6,233,49,0
1445483,12,208,45,0
1445493,10,272,56,0
1445503,6,221,54,0
1445513,7,263,52,0
1445523,10,203,48,0
1445533,11,154,48,0
1445543,10,148,50,0
1445553,13,137,49,0
1445563,7,160,59,0
1445573,13,223,48,0
1445583,14,216,54,0
1445593,19,218,61,0
1445604,41,193,102,0
1445614,35,156,117,0
1445624,41,137,102,0
1445634,52,137,128,0
1445644,60,144,130,0
1445654,47,157,103,0
1445664,33,157,82,0
1445674,28,168,66,0
1445684,20,140,59,0
1445694,20,177,51,0
1445704,15,140,54,0
1445714,10,118,47,0
1445724,10,117,43,0
1445734,6,121,35,0
1445744,5,106,40,0
1445754,9,84,45,0
1445764,8,89,43,0
1445774,12,91,43,0
1445784,9,85,45,0
1445794,4,111,46,0
1445804,10,103,40,0
1445815,10,104,36,0
1445825,18,123,40,0
1445835,16,107,36,0
1445845,20,107,39,0
1445855,13,98,35,0
1445865,13,115,34,0
1445875,13,113,37,0
1445885,11,130,34,0
1445895,13,158,32,0
1445905,8,139,31,0
1445915,9,134,31,0
1445925,10,116,36,0
1445935,8,105,38,0
1445945,4,91,34,0
1445955,10,110,32,0
1445965,6,128,29,0
1445975,12,136,32,0
1445985,13,147,34,0
1445995,8,135,30,0
1446005,11,123,31,0
1446016,8,96,30,0
1446026,9,84,26,0
1446036,12,120,36,0
1446046,14,131,37,0
1446056,10,171,40,0
1446066,11,211,38,0
1446076,16,160,34,0
1446086,11,197,31,0
1446096,12,186,31,0
1446106,12,206,32,0
1446116,14,170,35,0
1446126,12,165,41,0
1446136,8,174,36,0
1446146,5,134,38,0
1446156,4,142,30,0
1446166,6,149,24,0
1446176,7,166,29,0
1446186,7,153,30,0
1446196,7,121,35,0
1446206,9,113,27,0
1446216,18,89,33,0
1446227,23,73,50,0
1446237,38,77,106,0
1446247,30,79,96,0
1446257,42,93,112,0
1446267,54,134,140,0
1446277,56,160,126,0
1446287,44,173,94,0
1446297,31,177,68,0
1446307,24,176,60,0
1446317,17,144,42,0
1446327,12,156,42,0
1446337,10,141,35,0
1446347,14,113,36,0
1446357,8,124,44,0
1446367,11,113,39,0
1446377,9,116,34,0
1446387,11,112,38,0
1446397,13,104,39,0
1446407,10,106,34,0
1446417,7,119,39,0
1446427,12,117,36,0
1446438,10,149,38,0
1446448,16,137,45,0
1446458,15,135,45,0
1446468,19,143,39,0
1446478,16,126,36,0
1446488,11,128,37,0
1446498,7,102,34,0
1446508,10,91,35,0
1446518,8,93,40,0
1446528,10,156,34,0
1446538,7,149,32,0
1446548,11,183,36,0
1446558,10,208,31,0
1446568,9,160,32,0
1446578,6,110,29,0
1446588,8,130,44,0
1446598,12,163,43,0
1446608,5,173,38,0
1446618,6,196,35,0
1446628,5,155,38,0
1446638,11,196,37,0
1446649,10,168,35,0
1446659,9,165,34,0
1446669,11,145,35,0
1446679,12,130,37,0
1446689,14,104,33,0
1446699,11,123,37,600
1446709,13,136,43,0
1446719,10,131,39,0
1446729,12,131,32,0
1446739,14,146,36,0
1446749,8,217,39,0
1446759,9,262,35,0
1446769,9,217,34,0
1446779,11,173,31,0
1446789,10,135,38,0
1446799,10,117,37,0
1446809,8,98,35,0
1446819,12,157,33,0
1446829,12,163,46,0
1446839,24,163,55,0
1446850,31,150,86,0
1446860,32,220,109,0
1446870,33,244,94,0
1446880,53,239,124,0
1446890,61,195,127,0
1446900,45,153,106,0
1446910,34,119,83,0
1446920,24,98,67,0
1446930,22,108,53,0
1446940,12,118,47,0
1446950,9,131,47,0
1446960,12,169,40,0
1446970,14,122,41,0
1446980,9,122,38,0
1446990,5,111,41,0
1447000,9,89,42,0
1447010,6,97,47,0
1447020,13,87,48,0
1447030,10,127,46,0
1447040,12,112,45,0
1447050,7,127,44,0
1447061,10,120,45,0
1447071,9,147,40,0
1447081,16,102,48,0
1447091,20,103,42,0
1447101,17,84,45,0
1447111,14,93,44,0
1447121,16,108,35,0
1447131,13,137,37,0
1447141,13,129,35,0
1447151,13,121,39,0
1447161,7,182,41,0
1447171,13,181,40,0
1447181,11,162,39,0
1447191,10,198,36,0
1447201,9,203,32,0
1447211,9,203,34,0
1447221,6,212,39,0
1447231,11,157,34,0
1447241,9,149,38,0
1447251,10,130,45,0
1447261,11,131,41,0
1447272,13,149,40,0
1447282,12,197,41,0
1447292,14,166,48,0
1447302,11,141,44,0
1447312,9,118,53,0
1447322,11,115,50,0
1447332,6,105,51,0
1447342,7,153,52,0
1447352,10,124,47,0
1447362,7,114,46,0
1447372,7,107,44,0
1447382,8,93,46,0
1447392,9,102,43,0
1447402,3,105,37,0
1447412,6,111,45,0
1447422,9,142,47,0
1447432,7,174,54,0
1447442,6,174,51,0
1447452,20,177,64,0
1447462,32,187,110,0
1447472,33,186,114,0
1447483,35,149,106,0
1447493,49,113,125,0
1447503,49,131,138,0
1447513,35,155,111,0
1447523,30,144,82,0
1447533,22,135,68,0
1447543,17,129,58,0
1447553,10,219,53,0
1447563,15,187,51,0
1447573,8,211,48,0
1447583,6,185,42,0
1447593,10,148,34,0
1447603,10,119,40,0
1447613,12,92,41,0
1447623,10,88,45,0
1447633,10,112,53,0
1447643,13,165,51,0
1447653,12,230,52,0
1447663,12,206,45,0
1447673,13,161,41,0
1447684,15,158,37,0
1447694,17,132,43,0
1447704,20,137,40,0
1447714,11,165,40,0
1447724,13,139,35,0
1447734,11,106,38,0
1447744,10,114,37,0
1447754,10,93,40,0
1447764,11,95,45,0
1447774,11,116,40,0
1447784,12,131,43,0
1447794,7,146,43,0
1447804,9,161,45,0
1447814,8,131,48,0
1447824,7,137,41,0
1447834,10,132,39,0
1447844,10,118,39,0
1447854,9,104,43,0
1447864,10,101,39,0
1447874,10,97,38,0
1447884,8,125,36,0
1447895,7,116,40,0
1447905,11,142,39,0
1447915,13,170,40,0
1447925,7,157,33,0
1447935,11,156,36,0
1447945,9,174,37,0
1447955,15,218,51,0
1447965,13,175,51,0
1447975,8,209,47,0
1447985,9,220,47,0
1447995,8,223,39,0
1448005,11,272,40,0
1448015,10,251,36,0
1448025,10,186,38,0
1448035,14,150,37,0
1448045,13,116,46,0
1448055,21,151,51,0
1448065,30,161,90,0
1448075,29,213,106,0
1448085,30,222,95,0
1448095,43,209,137,0
1448106,49,281,145,0
1448116,37,216,119,0
1448126,29,226,90,0
1448136,21,246,73,0
