3441494,13,46,52,1000
3441514,15,42,50,0
3441524,17,38,55,0
3441535,17,40,58,0
3441545,16,41,53,0
3441555,16,47,50,0
3441565,16,47,58,0
3441575,17,50,55,0
3441585,18,48,58,0
3441595,16,47,56,0
3441605,16,48,61,0
3441615,15,44,64,0
3441625,17,43,62,0
3441635,20,45,61,0
3441645,19,44,62,0
3441655,14,47,62,0
3441665,14,44,59,0
3441675,17,37,53,0
3441685,16,37,46,0
3441695,17,32,49,0
3441705,14,38,42,0
3441715,15,39,51,0
3441725,13,36,57,0
3441735,13,38,56,0
3441746,12,36,51,0
3441756,12,33,52,0
3441766,15,32,55,0
3441776,17,33,57,0
3441786,16,41,59,0
3441796,15,50,58,0
3441806,16,53,68,0
3441816,17,45,66,0
3441826,17,47,70,0
3441836,16,44,64,0
3441846,18,42,61,0
3441856,20,39,63,0
3441866,19,42,62,0
3441876,15,44,61,0
3441886,17,36,62,0
3441896,16,37,59,0
3441906,18,38,56,0
3441916,16,43,51,0
3441926,22,41,57,0
3441936,28,42,60,0
3441947,31,68,89,0
3441957,30,83,156,0
3441967,27,87,136,0
3441977,23,116,169,0
3441987,25,123,156,0
3441997,21,107,117,0
3442007,20,85,92,0
3442017,20,69,80,0
3442027,18,57,71,0
3442037,14,49,62,0
3442047,15,48,59,0
3442057,14,50,57,0
3442067,17,48,71,0
3442077,16,52,59,0
3442087,15,52,50,0
3442097,14,52,49,0
3442107,13,46,52,0
3442117,12,47,60,0
3442127,15,41,60,0
3442137,14,46,64,0
3442147,13,48,58,0
3442158,14,46,57,0
3442168,17,47,51,0
3442178,16,41,47,0
3442188,16,34,47,0
3442198,14,44,51,0
3442208,13,45,55,0
3442218,15,42,54,0
3442228,14,44,55,0
3442238,15,38,53,0
3442248,14,38,55,0
3442258,15,51,59,0
3442268,15,54,56,0
3442278,15,48,57,0
3442288,16,45,55,0
3442298,15,43,50,0
3442308,17,52,58,0
3442318,17,46,57,0
3442328,14,48,64,0
3442338,16,47,69,0
3442348,15,53,59,0
3442358,16,51,54,0
3442369,15,48,55,0
3442379,16,44,52,0
3442389,16,41,48,0
3442399,14,45,46,0
3442409,15,49,52,0
3442419,16,50,54,0
3442429,17,45,56,0
3442439,15,46,56,0
3442449,15,48,53,0
3442459,15,55,56,0
3442469,17,68,54,0
3442479,16,55,53,0
3442489,18,54,56,0
3442499,17,59,64,0
3442509,17,57,66,0
3442519,19,48,60,0
3442529,19,43,68,0
3442539,22,45,71,0
3442549,22,41,75,0
3442559,24,52,83,0
3442569,28,50,86,0
3442580,27,45,88,0
3442590,28,48,95,0
3442600,28,57,106,0
3442610,31,48,115,0
3442620,35,46,111,0
3442630,34,52,105,0
3442640,32,65,112,0
3442650,39,95,115,0
3442660,41,98,160,0
3442670,40,94,163,0
3442680,33,126,186,0
3442690,33,121,175,0
3442700,35,92,155,0
3442710,38,73,141,0
3442720,36,66,139,0
3442730,37,60,123,0
3442740,35,58,124,0
3442750,35,58,124,0
3442760,35,51,127,0
3442770,33,50,127,0
3442781,33,51,122,0
3442791,32,55,123,0
3442801,35,63,127,0
3442811,37,60,130,0
3442821,37,62,130,0
3442831,31,53,125,0
3442841,35,51,123,0
3442851,36,55,128,0
3442861,30,53,118,0
3442871,31,49,117,0
3442881,33,44,131,0
3442891,33,45,120,0
3442901,29,44,116,0
3442911,33,54,132,0
3442921,34,53,125,0
3442931,33,49,128,0
3442941,33,58,133,0
3442951,36,57,144,0
3442961,36,51,137,0
3442971,38,42,131,0
3442981,40,45,130,0
3442992,38,47,125,0
3443002,37,39,130,0
3443012,39,46,128,0
3443022,38,46,135,0
3443032,36,41,135,0
3443042,35,41,125,0
3443052,39,42,122,601
3443062,38,52,124,0
3443072,36,57,125,0
3443082,35,64,126,0
3443092,39,60,128,0
3443102,41,55,124,0
3443112,40,50,117,0
3443122,38,46,118,0
3443132,36,46,122,0
3443142,36,48,129,0
3443152,37,47,126,0
3443162,35,49,122,0
3443172,35,45,121,0
3443182,32,43,121,0
3443192,32,44,122,0
3443203,33,50,122,0
3443213,31,46,117,0
3443223,37,54,128,0
3443233,36,110,127,0
3443243,39,145,140,0
3443253,42,166,143,0
3443263,41,160,155,0
3443273,39,160,156,0
3443283,38,169,145,0
3443293,39,168,149,0
3443303,39,131,153,0
3443313,39,111,128,0
3443323,41,114,123,0
3443333,41,91,124,0
3443343,45,86,126,0
3443353,48,76,143,0
3443363,44,80,187,0
3443373,46,78,169,0
3443383,43,111,212,0
3443393,41,130,184,0
3443404,41,101,169,0
3443414,35,85,152,0
3443424,33,72,147,0
3443434,33,72,142,0
3443444,36,68,127,0
3443454,42,73,131,0
3443464,37,87,143,0
3443474,36,89,129,0
3443484,37,79,138,0
3443494,36,114,155,0
3443504,36,130,148,0
3443514,34,120,139,0
3443524,33,108,142,0
3443534,36,110,148,0
3443544,35,131,156,0
3443554,33,127,149,0
3443564,39,127,134,0
3443574,36,151,148,0
3443584,37,163,127,0
3443594,34,124,137,0
3443604,39,123,138,0
3443615,35,110,130,0
3443625,35,110,151,0
3443635,37,117,149,0
3443645,36,121,159,0
3443655,33,139,155,0
3443665,32,157,140,0
3443675,28,181,132,0
3443685,28,159,138,0
3443695,29,156,140,0
3443705,35,150,139,0
3443715,33,171,132,0
3443725,35,154,134,0
3443735,38,176,139,0
3443745,38,178,133,0
3443755,30,153,134,0
3443765,30,165,153,0
3443775,34,151,180,0
3443785,35,135,177,0
3443795,35,125,170,0
3443805,31,119,153,0
3443815,35,114,150,0
3443826,37,129,158,0
3443836,42,149,140,0
3443846,39,148,135,0
3443856,39,193,121,0
3443866,41,198,115,0
3443876,40,184,130,0
3443886,40,154,118,0
3443896,39,134,124,0
3443906,39,169,137,0
3443916,44,183,149,0
3443926,48,150,138,0
3443936,48,164,131,0
3443946,51,152,142,0
3443956,50,142,142,0
3443966,44,142,158,0
3443976,44,177,150,0
3443986,42,172,164,0
3443996,38,142,146,0
3444006,45,143,146,0
3444016,34,214,136,0
3444027,38,191,150,0
3444037,46,247,143,0
3444047,48,191,135,0
3444057,54,195,150,0
3444067,46,167,199,0
3444077,45,227,219,0
3444087,49,239,248,0
3444097,46,202,224,0
3444107,50,183,195,0
3444117,45,158,151,0
3444127,42,150,133,0
3444137,34,166,123,0
3444147,35,167,119,0
3444157,34,158,140,0
3444167,37,139,161,0
3444177,40,155,160,0
3444187,43,182,147,0
3444197,42,165,134,0
3444207,49,162,131,0
3444217,44,167,131,0
3444227,35,169,139,0
3444238,37,152,153,0
3444248,40,162,138,0
3444258,37,150,130,0
3444268,37,149,130,0
3444278,39,134,123,0
3444288,48,129,125,0
3444298,48,152,131,0
3444308,41,162,133,0
3444318,40,151,140,0
3444328,42,155,166,0
3444338,49,166,166,0
3444348,42,155,152,0
3444358,37,148,152,0
3444368,38,159,166,0
3444378,39,145,149,0
3444388,35,133,139,0
3444398,32,132,141,0
3444408,39,126,150,0
3444418,37,154,156,0
3444428,35,149,140,0
3444438,43,132,152,0
3444449,49,118,136,0
3444459,43,115,154,0
3444469,41,118,147,0
3444479,44,115,131,0
3444489,44,123,132,0
3444499,44,159,135,0
3444509,41,156,153,0
3444519,38,152,154,0
3444529,35,144,139,0
3444539,39,131,144,0
3444549,34,185,145,0
3444559,36,214,159,0
3444569,40,195,147,0
3444579,36,156,140,0
3444589,39,170,150,0
3444599,36,203,177,0
3444609,44,190,156,0
3444619,37,189,153,0
3444629,37,216,148,0
3444639,42,177,135,0
3444650,40,187,155,0
3444660,42,200,156,0
3444670,40,211,149,0
3444680,39,241,163,0
3444690,43,250,146,0
3444700,37,243,127,0
3444710,38,242,141,0
3444720,34,211,154,0
3444730,37,220,145,0
3444740,40,216,143,0
3444750,40,182,146,0
3444760,42,149,152,0
3444770,39,132,197,0
3444780,38,151,186,0
3444790,37,165,231,0
3444800,41,160,206,0
3444810,37,175,185,0
3444820,38,201,152,0
3444830,38,173,157,0
3444840,36,166,177,0
3444850,43,157,182,0
3444861,47,143,177,0
3444871,47,203,158,0
3444881,39,180,163,0
3444891,39,166,176,0
3444901,41,127,191,0
3444911,39,160,175,0
3444921,37,175,177,0
3444931,36,153,152,0
3444941,35,208,135,0
3444951,38,180,134,0
3444961,39,143,133,0
3444971,36,158,137,0
3444981,35,128,136,0
3444991,39,149,153,0
3445001,38,164,150,0
3445011,43,141,151,0
3445021,39,147,148,0
3445031,36,175,137,0
3445041,35,183,153,0
3445051,36,178,161,0
3445062,35,165,154,0
3445072,35,166,138,0
3445082,36,195,145,0
3445092,40,192,153,0
3445102,52,154,152,0
3445112,39,175,152,0
3445122,46,193,127,0
3445132,39,184,112,0
3445142,45,239,116,0
3445152,43,242,130,0
3445162,62,294,123,0
3445172,58,340,118,0
3445182,49,281,128,0
3445192,44,242,144,0
3445202,46,215,137,0
3445212,42,194,151,0
3445222,42,175,138,0
3445232,45,167,146,0
3445242,40,186,139,0
3445252,35,205,150,0
3445262,37,180,153,0
3445273,33,223,142,0
3445283,31,220,136,0
3445293,36,205,154,0
3445303,41,232,136,0
3445313,42,226,140,0
3445323,46,249,142,0
3445333,42,209,134,0
3445343,39,225,136,0
3445353,41,197,134,0
3445363,38,175,142,0
3445373,38,174,135,0
3445383,38,227,159,0
3445393,43,192,159,0
3445403,41,209,148,0
3445413,48,285,164,0
3445423,40,377,204,0
3445433,41,299,188,0
3445443,57,280,202,0
3445453,70,277,202,0
3445463,70,297,178,0
3445474,62,262,181,0
3445484,58,210,168,0
3445494,56,235,172,0
3445504,54,222,142,0
3445514,49,211,136,0
3445524,50,228,134,0
3445534,50,203,136,0
3445544,52,174,147,0
3445554,43,246,170,0
3445564,48,208,162,0
3445574,58,249,174,0
3445584,60,321,168,0
3445594,67,317,142,0
3445604,77,256,140,0
3445614,68,215,149,0
3445624,71,200,141,0
3445634,73,204,155,0
3445644,65,226,158,0
3445654,54,253,137,0
3445664,53,272,123,0
3445674,65,240,128,0
3445685,70,218,125,0
3445695,62,207,141,0
3445705,59,240,132,0
3445715,48,286,133,0
3445725,49,237,149,0
3445735,50,214,138,0
3445745,52,249,134,0
3445755,49,225,138,0
3445765,68,269,132,0
3445775,62,252,127,0
3445785,78,279,149,0
3445795,69,231,134,0
3445805,62,195,133,0
3445815,67,278,137,0
3445825,75,291,134,0
3445835,77,239,139,0
3445845,74,230,154,0
3445855,60,247,154,0
3445865,61,292,150,0
3445875,67,318,122,0
3445886,63,274,138,0
3445896,76,276,114,0
3445906,79,244,129,0
3445916,108,280,122,0
3445926,98,261,120,0
3445936,96,281,131,0
3445946,105,287,122,0
3445956,141,312,130,0
3445966,147,337,128,0
3445976,145,329,136,0
3445986,139,343,151,0
3445996,143,329,180,0
3446006,133,266,183,0
3446016,133,292,170,0
3446026,114,326,159,0
3446036,93,335,151,0
3446046,86,330,140,0
3446056,63,279,142,602
3446066,54,259,148,0
3446076,56,284,181,0
3446086,64,256,224,0
3446097,54,241,197,0
3446107,66,323,235,0
3446117,88,349,240,0
3446127,85,371,198,0
3446137,78,317,175,0
3446147,64,268,174,0
3446157,55,213,151,0
3446167,45,210,140,0
3446177,44,250,135,0
3446187,46,270,129,0
3446197,50,264,116,0
3446207,50,220,133,0
3446217,45,164,130,0
3446227,44,177,138,0
3446237,38,170,140,0
3446247,40,169,125,0
3446257,35,169,124,0
3446267,31,193,127,0
3446277,37,170,128,0
3446287,38,152,106,0
3446298,33,136,96,0
3446308,32,178,106,0
3446318,31,204,118,0
3446328,33,181,138,0
3446338,34,148,138,0
3446348,31,131,146,0
3446358,33,141,146,0
3446368,33,161,141,0
3446378,36,176,133,0
3446388,38,151,128,0
3446398,35,177,121,0
3446408,35,145,119,0
3446418,36,157,127,0
3446428,34,167,122,0
3446438,37,161,135,0
3446448,35,158,123,0
3446458,33,190,126,0
3446468,33,166,118,0
3446478,33,172,117,0
3446488,30,176,131,0
3446498,33,210,116,0
3446509,31,189,110,0
3446519,31,209,116,0
3446529,28,191,131,0
3446539,30,161,129,0
3446549,30,136,128,0
3446559,32,133,120,0
3446569,36,156,132,0
3446579,35,148,140,0
3446589,33,151,126,0
3446599,31,137,122,0
3446609,37,133,106,0
3446619,36,107,128,0
3446629,36,126,142,0
3446639,37,104,142,0
3446649,39,103,140,0
3446659,38,105,142,0
3446669,34,105,144,0
3446679,34,133,133,0
3446689,34,137,122,0
3446699,32,134,120,0
3446709,30,146,122,0
3446720,31,148,129,0
3446730,35,134,125,0
3446740,38,115,124,0
3446750,42,124,117,0
3446760,39,205,173,0
3446770,42,231,184,0
3446780,39,219,182,0
3446790,40,231,218,0
3446800,36,204,197,0
3446810,37,161,179,0
3446820,36,120,160,0
3446830,36,97,152,0
3446840,39,93,140,0
3446850,34,90,139,0
3446860,36,110,145,0
3446870,36,176,137,0
3446880,35,141,140,0
3446890,33,130,140,0
3446900,34,119,129,0
3446910,34,97,128,0
3446921,38,79,127,0
3446931,37,71,102,0
3446941,38,76,110,0
3446951,32,69,113,0
3446961,40,82,125,0
3446971,35,75,118,0
3446981,35,83,120,0
3446991,33,98,126,0
3447001,34,75,120,0
3447011,36,77,124,0
3447021,36,64,120,0
3447031,34,60,113,0
3447041,32,64,116,0
3447051,33,83,108,0
3447061,32,100,114,0
3447071,32,94,120,0
3447081,33,96,115,0
3447091,33,77,126,0
3447101,31,59,122,0
3447111,30,53,129,0
3447121,31,55,134,0
3447132,33,55,121,0
3447142,36,57,116,0
3447152,36,57,119,0
3447162,36,53,117,0
3447172,34,44,113,0
3447182,32,51,112,0
3447192,32,45,126,0
3447202,32,47,126,0
3447212,33,42,128,0
3447222,32,42,128,0
3447232,32,42,136,0
3447242,35,55,129,0
3447252,35,48,126,0
3447262,36,46,129,0
3447272,35,47,124,0
3447282,36,47,121,0
3447292,33,48,131,0
3447302,32,43,129,0
3447312,35,42,119,0
3447322,33,44,122,0
3447333,32,55,122,0
3447343,32,55,120,0
3447353,32,50,136,0
3447363,34,53,132,0
3447373,33,57,121,0
3447383,32,48,115,0
3447393,34,48,138,0
3447403,37,50,134,0
3447413,38,47,133,0
3447423,36,40,135,0
3447433,37,39,128,0
3447443,34,51,128,0
3447453,34,44,121,0
3447463,37,46,110,0
3447473,35,48,119,0
3447483,38,58,133,0
3447493,41,110,171,0
3447503,44,101,182,0
3447513,42,106,171,0
3447523,37,104,216,0
3447533,34,100,191,0
3447544,38,87,159,0
3447554,36,78,135,0
3447564,35,72,138,0
3447574,36,64,128,0
3447584,36,59,119,0
3447594,35,60,124,0
3447604,33,59,126,0
3447614,35,63,126,0
3447624,37,55,122,0
3447634,34,51,123,0
3447644,35,50,123,0
3447654,35,46,124,0
3447664,34,52,121,0
3447674,35,45,121,0
3447684,34,49,125,0
3447694,39,51,134,0
3447704,35,51,131,0
3447714,35,52,128,0
3447724,33,50,128,0
3447734,36,43,118,0
3447744,33,41,120,0
3447755,35,46,117,0
3447765,33,53,122,0
3447775,35,44,125,0
3447785,33,45,128,0
3447795,36,48,140,0
3447805,35,51,131,0
3447815,32,46,124,0
3447825,35,46,131,0
3447835,32,51,132,0
3447845,39,53,138,0
3447855,40,45,145,0
3447865,35,47,120,0
3447875,35,43,132,0
3447885,34,44,138,0
3447895,32,51,139,0
3447905,32,53,127,0
3447915,31,43,117,0
3447925,35,44,126,0
3447935,35,46,120,0
3447945,35,47,134,0
3447955,35,45,124,0
3447966,35,48,113,0
3447976,31,57,122,0
3447986,33,58,144,0
3447996,30,57,130,0
3448006,29,45,127,0
3448016,33,47,123,0
3448026,32,43,127,0
3448036,35,43,120,0
3448046,37,47,116,0
3448056,35,48,120,1001
3448066,36,47,115,0
3448076,34,43,127,0
3448086,37,41,128,0
3448096,38,39,126,0
3448106,34,50,122,0
3448116,34,52,114,0
3448126,33,49,121,0
3448136,36,45,128,0
3448146,36,43,131,0
3448156,36,44,124,0
3448167,36,43,128,0
3448177,34,44,131,0
3448187,36,56,131,0
3448197,38,49,139,0
3448207,41,67,133,0
3448217,42,102,168,0
3448227,44,103,190,0
3448237,40,113,175,0
3448247,37,137,194,0
3448257,35,120,180,0
3448267,33,102,154,0
3448277,31,82,147,0
3448287,32,72,141,0
3448297,35,58,136,0
3448307,36,60,129,0
3448317,32,49,128,0
3448327,33,51,131,0
3448337,35,53,126,0
3448347,36,46,122,0
3448357,33,44,133,0
3448367,32,49,129,0
3448378,38,50,138,0
3448388,35,47,134,0
3448398,37,43,124,0
3448408,38,53,127,0
3448418,32,50,123,0
3448428,37,49,128,0
3448438,37,53,126,0
3448448,39,55,128,0
3448458,37,48,131,0
3448468,36,43,125,0
3448478,37,42,129,0
3448488,36,43,121,0
3448498,36,40,114,0
3448508,35,39,119,0
3448518,34,41,110,0
3448528,33,50,122,0
3448538,35,47,116,0
3448548,35,48,117,0
3448558,37,54,124,0
3448568,37,50,122,0
3448578,38,45,131,0
3448589,39,42,134,0
3448599,40,39,119,0
3448609,38,46,129,0
3448619,38,45,128,0
3448629,36,43,130,0
3448639,40,45,123,0
3448649,34,44,120,0
3448659,34,42,118,0
3448669,35,39,124,0
3448679,35,50,129,0
3448689,37,48,128,0
3448699,34,51,129,0
3448709,34,51,136,0
3448719,36,58,129,0
3448729,35,58,127,0
3448739,38,56,136,0
3448749,36,52,127,0
3448759,35,50,140,0
3448769,39,46,139,0
3448779,37,49,136,0
3448790,38,44,127,0
3448800,38,47,125,0
3448810,38,44,124,0
3448820,40,42,131,0
3448830,37,40,128,0
3448840,37,39,133,0
3448850,35,39,133,0
3448860,34,37,134,0
3448870,40,48,129,0
3448880,37,49,131,0
3448890,45,67,136,0
3448900,40,57,168,0
3448910,41,57,147,0
3448920,39,76,169,0
3448930,40,88,161,0
3448940,38,85,156,0
3448950,37,75,148,0
3448960,34,65,138,0
3448970,35,63,138,0
3448980,37,48,125,0
3448990,36,47,125,0
3449001,37,50,130,0
3449011,37,55,142,0
3449021,35,69,138,0
3449031,37,55,133,0
3449041,35,50,128,0
3449051,33,50,124,0
3449061,34,47,135,0
3449071,34,43,130,0
3449081,35,41,132,0
3449091,33,41,132,0
3449101,34,46,128,0
3449111,39,51,137,0
3449121,36,55,133,0
3449131,39,56,130,0
3449141,36,53,127,0
3449151,32,57,117,0
3449161,34,57,120,0
3449171,35,54,117,0
3449181,38,57,120,0
3449191,37,52,119,0
3449201,34,47,118,0
3449212,37,50,133,0
3449222,38,47,129,0
3449232,37,46,120,0
3449242,38,42,131,0
3449252,37,49,129,0
3449262,36,40,129,0
3449272,41,36,130,0
3449282,38,35,125,0
3449292,36,39,125,0
3449302,31,41,130,0
3449312,35,44,136,0
3449322,37,46,132,0
3449332,34,41,118,0
3449342,33,44,128,0
3449352,33,45,125,0
3449362,33,52,134,0
3449372,31,50,135,0
3449382,30,54,121,0
3449392,30,49,137,0
3449402,32,50,136,0
3449412,35,48,137,0
3449423,38,48,128,0
3449433,38,43,132,0
3449443,39,53,138,0
3449453,40,50,136,0
3449463,38,49,137,0
3449473,37,47,135,0
3449483,37,38,123,0
3449493,36,39,135,0
3449503,38,40,131,0
3449513,36,36,127,0
3449523,38,42,130,0
3449533,37,44,130,0
3449543,38,66,174,0
3449553,43,65,180,0
3449563,39,84,170,0
3449573,37,96,202,0
3449583,35,94,169,0
3449593,33,84,156,0
3449603,37,72,147,0
3449613,39,54,139,0
3449624,37,50,136,0
3449634,36,53,129,0
3449644,34,48,123,0
3449654,35,50,125,0
3449664,37,49,129,0
3449674,37,42,126,0
3449684,36,40,123,0
3449694,35,49,134,0
3449704,36,52,139,0
3449714,36,50,129,0
3449724,35,51,129,0
3449734,36,41,130,0
3449744,36,40,137,0
3449754,37,37,134,1000
3449764,38,38,134,700
3449774,37,43,137,0
3449784,38,40,124,0
3449794,39,39,133,0
3449804,38,38,133,0
3449814,40,40,134,0
3449824,37,43,131,0
3449835,35,42,127,0
3449845,37,50,134,0
3449855,39,49,133,0
3449865,38,49,124,0
3449875,35,46,127,0
3449885,37,44,125,0
3449895,39,46,129,0
3449905,39,44,128,0
3449915,36,47,128,0
3449925,38,44,135,0
3449935,36,42,130,0
3449945,36,45,137,0
3449955,36,46,138,0
3449965,33,48,127,0
3449975,35,49,128,0
3449985,32,45,121,0
3449995,36,40,135,0
3450005,37,41,136,0
3450015,34,45,130,0
3450025,36,56,131,0
3450035,32,58,126,0
3450046,37,59,136,0
3450056,38,53,130,0
3450066,35,68,117,0
3450076,34,80,119,0
3450086,34,76,122,0
3450096,38,66,130,0
3450106,39,54,138,0
3450116,41,58,145,0
3450126,42,68,142,0
3450136,40,57,132,0
3450146,43,49,131,0
3450156,44,52,129,0
3450166,40,46,119,0
3450176,40,47,119,0
3450186,38,46,122,0
3450196,40,64,124,0
3450206,40,64,120,0
3450216,38,62,117,0
3450226,42,110,152,0
3450236,45,120,171,0
3450247,43,132,175,0
3450257,44,164,215,0
3450267,40,156,165,0
3450277,37,110,154,0
3450287,39,96,148,0
3450297,39,77,143,0
3450307,39,67,139,0
3450317,38,55,130,0
3450327,37,54,142,0
3450337,39,50,145,0
3450347,38,51,131,0
3450357,38,56,129,0
3450367,39,50,117,0
3450377,38,49,123,0
3450387,36,53,124,0
3450397,37,46,121,0
3450407,35,44,112,0
3450417,35,44,111,0
3450427,35,52,120,0
3450437,37,43,124,0
3450447,38,49,125,0
3450458,35,52,120,0
3450468,37,47,128,0
3450478,36,57,135,0
3450488,36,52,132,0
3450498,36,47,127,0
3450508,37,35,127,0
3450518,34,46,124,0
3450528,31,50,128,0
3450538,29,65,130,0
3450548,30,58,131,0
3450558,32,55,135,0
3450568,34,55,130,0
3450578,33,68,137,0
3450588,34,63,138,0
3450598,36,55,126,0
3450608,33,65,132,0
3450618,37,50,131,0
3450628,37,51,138,0
3450638,34,46,127,0
3450648,34,48,133,0
3450658,34,53,128,0
3450669,35,53,133,0
3450679,38,52,132,0
3450689,40,59,129,0
3450699,36,58,128,0
3450709,36,50,123,0
3450719,35,55,133,0
3450729,37,54,137,0
3450739,38,51,130,0
3450749,34,47,123,0
3450759,36,48,126,0
3450769,33,46,142,0
3450779,37,57,143,0
3450789,36,60,136,0
3450799,36,54,131,0
3450809,39,53,140,0
3450819,41,62,126,0
3450829,41,66,134,0
3450839,40,55,142,0
3450849,39,55,140,0
3450859,39,64,135,0
3450870,39,66,136,0
3450880,39,69,127,0
3450890,40,71,125,0
3450900,37,65,121,0
3450910,42,78,137,0
3450920,43,75,133,0
3450930,49,122,177,0
3450940,45,130,183,0
3450950,43,169,176,0
3450960,39,198,185,0
3450970,40,172,180,0
3450980,39,149,164,0
3450990,36,125,154,0
3451000,34,115,137,0
3451010,33,91,135,0
3451020,34,93,141,0
3451030,38,78,134,0
3451040,38,67,129,0
3451050,33,71,129,0
3451060,34,82,129,0
3451070,36,102,127,0
3451081,34,93,133,0
3451091,34,92,125,0
3451101,34,77,120,0
3451111,34,73,127,0
3451121,34,65,133,0
3451131,37,73,128,0
3451141,30,92,134,0
3451151,31,74,131,0
3451161,31,75,143,0
3451171,36,105,127,0
3451181,35,97,124,0
3451191,36,101,127,0
3451201,37,98,127,0
3451211,36,90,138,0
3451221,35,77,133,0
3451231,36,116,129,0
3451241,37,105,117,0
3451251,33,105,117,0
3451261,34,130,130,701
3451271,34,171,128,0
3451282,34,145,128,0
3451292,37,109,125,0
3451302,33,117,124,0
3451312,33,146,127,0
3451322,35,136,122,0
3451332,35,116,129,0
3451342,37,87,127,0
3451352,33,80,117,0
3451362,32,82,132,0
3451372,33,91,144,0
3451382,34,114,139,0
3451392,32,108,129,0
3451402,36,92,130,0
3451412,36,97,138,0
3451422,41,120,136,0
3451432,39,120,135,0
3451442,43,158,127,0
3451452,39,156,153,0
3451462,41,172,160,0
3451472,40,185,140,0
3451482,37,195,124,0
3451493,40,164,126,0
3451503,40,122,124,0
3451513,42,124,145,0
3451523,45,144,139,0
3451533,46,207,144,0
3451543,43,177,150,0
3451553,35,173,136,0
3451563,38,197,139,0
3451573,38,205,138,0
3451583,37,210,124,0
3451593,35,199,134,0
3451603,33,160,123,0
3451613,45,150,142,0
3451623,37,190,156,0
3451633,44,182,153,0
3451643,43,235,153,0
3451653,39,244,181,0
3451663,38,240,176,0
3451673,37,203,147,0
3451683,33,159,133,0
3451693,35,212,151,0
3451704,34,236,164,0
3451714,32,226,153,0
3451724,36,214,144,0
3451734,40,214,140,0
3451744,44,213,124,0
3451754,43,195,127,0
3451764,39,180,119,0
3451774,41,202,120,0
3451784,33,181,126,0
3451794,43,190,149,0
3451804,41,175,162,0
3451814,41,232,149,0
3451824,39,302,136,0
3451834,42,301,118,0
3451844,44,264,118,0
3451854,37,238,136,0
3451864,37,332,149,0
3451874,38,281,156,0
3451884,35,314,136,0
3451894,36,351,145,0
3451904,38,330,141,0
3451915,38,303,137,0
3451925,35,265,140,0
3451935,35,295,146,0
3451945,41,274,136,0
3451955,46,286,146,0
3451965,43,361,156,0
3451975,43,313,155,0
3451985,45,304,141,0
3451995,45,316,151,0
3452005,43,308,142,0
3452015,40,380,137,0
3452025,37,338,123,0
3452035,36,358,128,0
3452045,37,323,138,0
3452055,39,299,136,0
3452065,42,287,148,0
3452075,39,269,143,0
3452085,33,282,121,0
3452095,40,314,137,0
3452105,38,305,117,0
3452116,38,280,118,0
3452126,34,278,162,0
3452136,37,284,133,0
3452146,42,290,153,0
3452156,38,252,159,0
3452166,48,300,146,0
3452176,44,252,147,0
3452186,37,307,153,0
3452196,34,286,160,0
3452206,39,394,150,0
3452216,40,330,137,0
3452226,38,331,116,0
3452236,45,307,130,0
3452246,41,284,134,0
3452256,40,371,131,0
3452266,38,348,142,0
3452276,44,413,178,0
3452286,46,296,174,0
3452296,47,316,184,0
3452306,43,295,190,0
3452316,40,320,173,0
3452327,41,286,182,0
3452337,48,241,160,0
3452347,47,254,152,0
3452357,43,276,157,0
3452367,39,221,148,0
3452377,41,222,154,0
3452387,39,243,151,0
3452397,42,235,159,0
3452407,47,321,139,0
3452417,42,266,128,0
3452427,39,271,127,0
3452437,41,236,149,0
3452447,39,259,154,0
3452457,37,289,147,0
3452467,40,256,155,0
3452477,42,277,172,0
3452487,46,282,152,0
3452497,43,299,144,0
3452507,44,278,134,0
3452517,43,290,134,0
3452528,49,369,151,0
3452538,43,324,136,0
3452548,44,347,152,0
3452558,46,326,151,0
3452568,40,335,139,0
3452578,43,321,157,0
3452588,40,281,150,0
3452598,40,371,147,0
3452608,44,361,138,0
3452618,41,280,135,0
3452628,40,322,148,0
3452638,47,321,152,0
3452648,43,383,139,0
3452658,42,365,145,0
3452668,39,297,145,0
3452678,39,295,139,0
3452688,37,283,143,0
3452698,42,254,148,0
3452708,38,327,145,0
3452718,36,380,146,0
3452728,40,295,135,0
3452739,42,343,158,0
3452749,44,281,150,0
3452759,42,303,156,0
3452769,45,248,154,0
3452779,41,281,148,0
3452789,41,275,140,0
3452799,43,279,145,0
3452809,47,323,147,0
3452819,43,336,124,0
3452829,44,442,149,0
3452839,44,329,142,0
3452849,41,277,131,0
3452859,36,294,128,0
3452869,41,274,133,0
3452879,44,254,151,0
3452889,44,266,164,0
3452899,49,303,166,0
3452909,47,280,169,0
3452919,44,224,197,0
3452929,48,314,194,0
3452940,42,315,175,0
3452950,45,285,155,0
3452960,45,230,178,0
3452970,42,225,156,0
3452980,40,256,162,0
3452990,41,260,141,0
3453000,41,277,145,0
3453010,47,357,150,0
3453020,39,338,149,0
3453030,43,396,158,0
3453040,43,393,152,0
3453050,44,345,144,0
3453060,42,435,135,0
3453070,43,433,138,0
3453080,43,416,137,0
3453090,42,409,145,0
3453100,40,425,143,0
3453110,40,433,164,0
3453120,40,443,155,0
3453130,40,439,159,0
3453141,44,381,150,0
3453151,39,510,136,0
3453161,40,437,133,0
3453171,45,510,141,0
3453181,42,462,152,0
3453191,39,392,175,0
3453201,35,337,160,0
3453211,37,389,173,0
3453221,41,295,179,0
3453231,37,277,171,0
3453241,40,340,155,0
3453251,37,337,139,0
3453261,36,301,133,0
3453271,39,381,131,0
3453281,34,359,118,0
3453291,41,371,134,0
3453301,38,403,135,0
3453311,39,389,133,0
3453321,41,346,142,0
3453331,41,412,146,0
3453341,41,384,152,0
3453352,35,419,150,0
3453362,38,343,161,0
3453372,38,434,167,0
3453382,38,393,182,0
3453392,42,429,158,0
3453402,42,466,159,0
3453412,43,456,164,0
3453422,41,385,162,0
3453432,43,363,161,0
3453442,40,376,157,0
3453452,40,376,158,0
3453462,46,403,157,0
3453472,45,367,155,0
3453482,48,353,141,0
3453492,44,336,129,0
3453502,48,365,142,0
3453512,50,317,194,0
3453522,52,384,168,0
3453532,46,394,153,0
3453542,45,409,195,0
3453553,45,388,161,0
3453563,43,353,144,0
3453573,43,367,143,0
3453583,41,298,163,0
3453593,41,302,147,0
3453603,40,327,148,0
3453613,40,351,159,0
3453623,39,351,153,0
3453633,37,360,158,0
3453643,39,359,149,0
3453653,36,351,156,0
3453663,41,349,156,0
3453673,39,354,143,0
3453683,37,319,136,0
3453693,32,278,145,0
3453703,36,296,131,0
3453713,35,281,134,0
3453723,42,256,132,0
3453733,44,303,137,0
3453743,43,334,133,0
3453753,39,350,126,0
3453764,41,371,149,0
3453774,43,378,159,0
3453784,37,367,158,0
3453794,39,350,164,0
3453804,36,351,166,0
3453814,41,361,185,0
3453824,41,294,158,0
3453834,36,304,130,0
3453844,35,265,156,0
3453854,37,268,157,0
3453864,40,297,174,0
3453874,40,357,166,0
3453884,44,351,166,0
3453894,45,367,169,0
3453904,49,359,141,0
3453914,44,367,135,0
3453924,48,316,132,0
3453934,51,373,130,0
3453944,44,342,150,0
3453954,42,393,162,0
3453965,38,350,152,0
3453975,45,342,160,0
3453985,38,307,162,0
3453995,43,291,165,0
3454005,46,284,179,0
3454015,45,386,178,0
3454025,40,345,166,0
3454035,42,378,167,0
3454045,43,341,178,0
3454055,43,375,159,0
3454065,42,381,158,0
3454075,41,295,146,0
3454085,44,378,141,0
3454095,42,376,157,0
3454105,51,396,171,0
3454115,51,443,195,0
3454125,44,389,216,0
3454135,41,334,186,0
3454145,35,320,175,0
3454155,40,373,190,0
3454165,39,420,170,0
3454176,42,415,160,0
3454186,38,329,158,0
3454196,38,407,141,0
3454206,40,492,153,0
3454216,46,412,145,0
3454226,43,437,143,0
3454236,40,401,137,0
3454246,42,349,119,0
3454256,40,352,137,0
3454266,42,364,156,702
3454276,41,305,171,0
3454286,39,313,165,0
3454296,43,302,162,0
3454306,42,344,149,0
3454316,43,321,158,0
3454326,41,266,148,0
3454336,41,301,136,0
3454346,44,350,155,0
3454356,41,357,139,0
3454366,41,307,145,0
3454376,41,324,149,0
3454387,37,304,154,0
3454397,41,271,167,0
3454407,39,252,153,0
3454417,38,331,143,0
3454427,36,301,142,0
3454437,36,259,132,0
3454447,37,328,135,0
3454457,37,354,155,0
3454467,36,312,136,0
3454477,39,286,138,0
3454487,36,288,135,0
3454497,39,248,145,0
3454507,39,298,150,0
3454517,39,250,133,0
3454527,41,238,145,0
3454537,41,234,145,0
3454547,41,241,143,0
3454557,44,271,135,0
3454567,39,265,118,0
3454577,42,236,129,0
3454588,41,237,130,0
3454598,43,302,134,0
3454608,41,329,135,0
3454618,40,267,140,0
3454628,44,275,140,0
3454638,45,303,137,0
3454648,42,260,135,0
3454658,41,293,142,0
3454668,39,269,136,0
3454678,38,249,142,0
3454688,38,237,144,0
3454698,42,278,151,0
3454708,40,296,141,0
3454718,43,270,134,0
3454728,44,230,171,0
3454738,44,200,175,0
3454748,40,204,167,0
3454758,40,186,181,0
3454768,41,164,153,0
3454778,36,159,148,0
3454788,36,179,150,0
3454799,36,195,142,0
3454809,35,220,143,0
3454819,33,326,139,0
3454829,35,260,144,0
3454839,38,241,147,0
3454849,39,242,142,0
3454859,37,248,145,0
3454869,36,215,137,0
3454879,33,213,144,0
3454889,35,164,142,0
3454899,40,210,137,0
3454909,41,199,142,0
3454919,38,216,143,0
3454929,37,244,142,0
3454939,37,264,142,0
3454949,39,270,136,0
3454959,38,214,141,0
3454969,37,196,129,0
3454979,43,187,125,0
3454989,43,228,128,0
3455000,41,274,136,0
3455010,40,293,128,0
3455020,38,259,132,0
3455030,39,222,142,0
3455040,38,186,135,0
3455050,39,172,139,0
3455060,40,201,127,0
3455070,34,204,132,0
3455080,38,207,142,0
3455090,37,259,141,0
3455100,38,258,141,0
3455110,36,218,134,0
3455120,35,258,127,0
3455130,42,226,143,0
3455140,38,195,131,0
3455150,37,264,137,0
3455160,37,242,137,0
3455170,34,219,140,0
3455180,38,238,154,0
3455190,40,243,146,0
3455200,39,225,129,0
3455211,39,215,141,0
3455221,35,224,147,0
3455231,40,181,157,0
3455241,39,162,151,0
3455251,35,174,134,0
3455261,37,147,137,0
3455271,38,134,132,0
3455281,39,148,139,0
3455291,37,192,131,0
3455301,40,165,147,0
3455311,41,162,146,0
3455321,38,170,136,0
3455331,37,202,146,0
3455341,39,195,148,0
3455351,37,165,139,0
3455361,39,172,132,0
3455371,43,226,133,0
3455381,44,229,129,0
3455391,51,220,129,0
3455401,49,287,146,0
3455411,53,246,155,0
3455422,47,215,160,0
3455432,47,235,203,0
3455442,40,216,180,0
3455452,39,179,166,0
3455462,38,205,167,0
3455472,40,255,160,0
3455482,39,251,156,0
3455492,40,218,155,0
3455502,39,197,140,0
3455512,37,189,134,0
3455522,38,193,136,0
3455532,39,167,138,0
3455542,35,204,132,0
3455552,35,189,128,0
3455562,36,178,131,0
3455572,35,190,140,0
3455582,39,167,137,0
3455592,40,158,118,0
3455602,36,167,119,0
3455612,36,151,126,0
3455623,38,167,129,0
3455633,37,177,133,0
3455643,37,166,139,0
3455653,38,158,128,0
3455663,35,216,140,0
3455673,35,205,135,0
3455683,37,208,132,0
3455693,36,192,118,0
3455703,35,189,124,0
3455713,36,177,134,0
3455723,39,205,133,0
3455733,38,203,139,0
3455743,39,181,129,0
3455753,40,162,126,0
3455763,41,169,134,0
3455773,39,177,134,0
3455783,40,242,135,0
3455793,39,264,148,0
3455803,36,206,140,0
3455813,35,170,152,0
3455823,37,172,149,0
3455834,37,160,141,0
3455844,37,145,140,0
3455854,32,174,142,0
3455864,35,141,148,0
3455874,41,116,145,0
3455884,39,115,136,0
3455894,41,141,128,0
3455904,39,130,127,0
3455914,43,144,139,0
3455924,42,158,131,0
3455934,37,170,128,0
3455944,38,191,140,0
3455954,36,214,132,0
3455964,38,176,137,0
3455974,40,174,133,0
3455984,40,189,145,0
3455994,38,180,135,0
3456004,38,161,139,0
3456014,38,150,134,0
3456024,38,167,130,0
3456034,35,161,124,0
3456045,40,163,140,0
3456055,41,177,138,0
3456065,48,192,154,0
3456075,44,197,173,0
3456085,45,210,166,0
3456095,44,175,168,0
3456105,42,145,162,0
3456115,40,264,147,0
3456125,40,251,142,0
3456135,37,264,138,0
3456145,37,266,145,0
3456155,40,300,142,0
3456165,42,231,135,0
3456175,43,256,124,0
3456185,42,218,121,0
3456195,39,219,148,0
3456205,39,212,153,0
3456215,39,227,150,0
3456225,37,206,153,0
3456235,36,208,139,0
3456246,36,195,141,0
3456256,41,232,141,0
3456266,41,175,129,0
3456276,37,179,126,1001
3456286,34,180,136,0
3456296,36,174,143,0
3456306,36,166,144,0
3456316,38,167,134,0
3456326,37,156,130,0
3456336,37,214,126,0
3456346,38,199,143,0
3456356,38,209,139,0
3456366,41,177,160,0
3456376,38,146,141,0
3456386,35,160,140,0
3456396,37,136,144,0
3456406,39,131,147,0
3456416,40,165,139,0
3456426,39,168,138,0
3456436,35,215,131,0
3456446,41,201,141,0
3456457,40,224,135,0
3456467,38,227,124,0
3456477,39,233,127,0
3456487,37,195,127,0
3456497,41,234,136,0
3456507,37,226,134,0
3456517,39,176,125,0
3456527,36,177,133,0
3456537,34,156,136,0
3456547,40,196,143,0
3456557,41,221,142,0
3456567,39,263,145,0
3456577,41,228,148,0
3456587,35,272,146,0
3456597,43,297,152,0
3456607,40,255,145,0
3456617,40,264,142,0
3456627,39,207,143,0
3456637,36,214,136,0
3456647,39,203,146,0
3456657,41,198,143,0
3456668,41,161,133,0
3456678,41,236,145,0
3456688,44,220,151,0
3456698,45,199,182,0
3456708,48,180,186,0
3456718,43,185,168,0
3456728,43,315,168,0
3456738,42,263,152,0
3456748,41,322,148,0
3456758,42,246,144,0
3456768,39,242,133,0
3456778,38,187,147,0
3456788,38,187,146,0
3456798,39,235,149,0
3456808,41,286,142,0
3456818,38,262,124,0
3456828,38,262,135,0
3456838,37,227,146,0
3456848,37,209,148,0
3456858,41,183,139,0
3456869,39,210,128,0
3456879,38,212,141,0
3456889,39,199,143,0
3456899,38,165,143,0
3456909,37,118,138,0
3456919,37,98,126,0
3456929,37,109,132,0
3456939,39,134,138,0
3456949,43,134,137,0
3456959,39,164,133,0
3456969,36,150,123,0
3456979,39,173,137,0
3456989,38,174,148,0
3456999,39,175,146,0
3457009,40,198,153,0
3457019,38,176,126,0
3457029,38,230,127,0
3457039,37,219,135,0
3457049,36,253,130,0
3457059,36,239,136,0
3457069,35,204,125,0
3457080,37,165,133,0
3457090,38,167,144,0
3457100,39,183,139,0
3457110,37,183,133,0
3457120,34,155,139,0
3457130,37,175,138,0
3457140,39,208,142,0
3457150,40,168,137,0
3457160,39,198,143,0
3457170,38,156,138,0
3457180,38,143,132,0
3457190,37,113,130,0
3457200,42,123,139,0
3457210,44,126,131,0
3457220,38,97,118,0
3457230,42,126,131,0
3457240,41,161,133,0
3457250,39,173,137,0
3457260,38,138,129,0
3457270,36,136,132,0
3457280,36,130,137,0
3457291,41,122,128,0
3457301,40,118,137,0
3457311,47,118,162,0
3457321,46,121,177,0
3457331,47,215,169,0
3457341,44,210,169,0
3457351,41,287,147,0
3457361,41,248,143,0
3457371,37,222,135,0
3457381,40,194,138,0
3457391,42,189,137,0
3457401,38,184,124,0
3457411,36,158,129,0
3457421,33,193,132,0
3457431,37,171,138,0
3457441,39,159,144,0
3457451,34,164,142,0
3457461,33,155,144,0
3457471,35,163,137,0
3457481,39,148,134,0
3457491,39,152,137,0
3457502,36,138,129,0
3457512,36,146,132,0
3457522,34,108,131,0
3457532,32,97,131,0
3457542,35,107,125,0
3457552,31,116,117,0
3457562,35,104,124,0
3457572,38,117,134,0
3457582,37,148,142,0
3457592,40,144,138,0
3457602,37,142,127,0
3457612,37,118,133,0
3457622,36,110,133,0
3457632,40,117,137,0
3457642,41,108,132,0
3457652,37,162,116,0
3457662,36,147,129,0
3457672,36,154,130,0
3457682,34,148,128,0
3457692,35,118,138,0
3457703,31,114,132,0
3457713,32,115,134,0
3457723,34,100,136,0
3457733,33,126,130,0
3457743,38,127,129,0
3457753,35,125,130,0
3457763,37,153,133,0
3457773,37,136,131,0
3457783,39,136,139,0
3457793,38,164,133,0
3457803,38,158,133,0
3457813,35,133,129,0
3457823,38,131,125,0
3457833,36,116,116,0
3457843,36,128,114,0
3457853,35,97,120,0
3457863,38,98,133,0
3457873,37,113,130,0
3457883,35,122,129,0
3457893,32,121,124,0
3457903,34,105,116,0
3457914,34,100,129,0
3457924,35,105,128,1000
3457934,37,132,114,700
3457944,41,101,123,0
3457954,46,137,114,0
3457964,46,167,171,0
3457974,46,150,180,0
3457984,43,206,181,0
3457994,43,166,205,0
3458004,39,144,178,0
3458014,40,110,170,0
3458024,40,117,150,0
3458034,40,171,144,0
3458044,40,171,134,0
3458054,37,157,131,0
3458064,39,141,139,0
3458074,37,122,136,0
3458084,36,100,123,0
3458094,37,109,132,0
3458104,32,99,121,0
3458114,36,95,133,0
3458125,37,93,128,0
3458135,38,113,120,0
3458145,36,119,132,0
3458155,34,139,130,0
3458165,39,116,133,0
3458175,37,110,138,0
3458185,39,110,125,0
3458195,39,130,122,0
3458205,36,100,123,0
3458215,36,83,140,0
3458225,40,94,130,0
3458235,37,87,124,0
3458245,39,83,139,0
3458255,38,83,132,0
3458265,39,72,130,0
3458275,40,81,131,0
3458285,41,88,113,0
3458295,39,110,117,0
3458305,36,127,127,0
3458315,35,102,128,0
3458325,38,132,132,0
3458336,37,119,132,0
3458346,35,105,135,0
3458356,39,144,135,0
3458366,36,121,132,0
3458376,37,143,132,0
3458386,37,117,120,0
3458396,36,98,127,0
3458406,37,115,133,0
3458416,36,127,134,0
3458426,35,152,127,0
3458436,38,157,131,0
3458446,39,143,133,0
3458456,39,178,142,0
3458466,38,150,136,0
3458476,35,228,127,0
3458486,35,185,131,0
3458496,33,158,122,0
3458506,37,167,134,0
3458516,38,169,131,0
3458526,39,144,134,0
3458537,39,109,132,0
3458547,40,95,139,0
3458557,46,139,137,0
3458567,46,138,129,0
3458577,41,162,136,0
3458587,37,147,145,0
3458597,37,120,135,0
3458607,36,103,142,0
3458617,37,111,141,0
3458627,36,95,120,0
3458637,44,139,125,0
3458647,46,194,146,0
3458657,45,220,189,0
3458667,44,255,157,0
3458677,42,298,160,0
3458687,35,290,209,0
3458697,37,256,186,0
3458707,38,220,166,0
3458717,40,181,183,0
3458727,37,139,173,0
3458737,34,164,152,0
3458748,37,145,141,0
3458758,34,138,137,0
3458768,37,110,132,0
3458778,42,123,137,0
3458788,36,122,140,0
3458798,38,129,142,0
3458808,36,190,128,0
3458818,38,170,128,0
3458828,37,140,127,0
3458838,35,128,116,0
3458848,38,130,139,0
3458858,38,113,148,0
3458868,34,104,132,0
3458878,39,105,132,0
3458888,37,133,124,0
3458898,38,152,133,0
3458908,39,176,136,0
3458918,36,192,125,0
3458928,38,215,132,0
3458938,37,237,129,0
3458948,38,245,130,0
3458959,37,200,141,0
3458969,34,169,123,0
3458979,36,170,129,0
3458989,34,143,120,0
3458999,36,131,129,0
3459009,41,117,137,0
3459019,40,169,122,0
3459029,44,197,129,0
3459039,41,218,125,0
3459049,42,261,127,0
3459059,47,227,143,0
3459069,39,256,159,0
3459079,37,217,158,0
3459089,37,200,149,0
3459099,37,168,153,0
3459109,37,210,149,0
3459119,38,207,140,0
3459129,38,204,144,0
3459139,38,238,145,0
3459149,35,215,129,0
3459160,37,185,144,0
3459170,33,166,126,0
3459180,32,168,139,0
3459190,34,261,137,0
3459200,36,223,123,0
3459210,36,184,128,0
3459220,37,235,163,0
3459230,41,238,174,0
3459240,36,190,184,0
3459250,36,159,182,0
3459260,38,168,162,0
3459270,38,155,153,0
3459280,40,140,137,0
3459290,38,140,169,0
3459300,40,141,154,0
3459310,42,142,153,0
3459320,46,185,154,0
3459330,45,250,237,0
3459340,42,231,219,0
3459350,40,224,244,0
3459360,38,220,250,0
3459371,38,260,194,0
3459381,40,208,173,0
3459391,37,244,173,0
3459401,40,201,163,0
3459411,41,176,144,0
3459421,38,213,166,0
3459431,42,181,169,701
3459441,41,130,172,0
3459451,38,127,160,0
3459461,41,144,140,0
3459471,37,242,138,0
3459481,39,249,149,0
3459491,41,320,136,0
3459501,37,295,173,0
3459511,37,290,159,0
3459521,30,248,165,0
3459531,29,264,178,0
3459541,32,220,163,0
3459551,36,189,164,0
3459561,38,181,153,0
3459571,35,269,119,0
3459582,40,235,144,0
3459592,40,307,144,0
3459602,42,248,126,0
3459612,38,224,144,0
3459622,36,234,140,0
3459632,35,350,153,0
3459642,36,292,148,0
3459652,43,240,146,0
3459662,46,232,178,0
3459672,39,236,149,0
3459682,41,291,161,0
3459692,39,337,145,0
3459702,34,299,121,0
3459712,35,374,141,0
3459722,36,338,168,0
3459732,42,315,179,0
3459742,41,266,166,0
3459752,34,274,183,0
3459762,35,260,188,0
3459772,33,241,184,0
3459783,35,214,159,0
3459793,36,195,152,0
3459803,37,246,143,0
3459813,35,202,136,0
3459823,41,253,128,0
3459833,38,227,129,0
3459843,39,228,143,0
3459853,35,282,135,0
3459863,34,339,119,0
3459873,39,303,156,0
3459883,41,305,185,0
3459893,41,323,162,0
3459903,45,286,176,0
3459913,42,311,154,0
3459923,42,336,143,0
3459933,40,293,146,0
3459943,36,329,152,0
3459953,36,308,169,0
3459963,36,327,166,0
3459973,41,317,167,0
3459983,43,307,174,0
3459994,46,317,201,0
3460004,45,259,195,0
3460014,40,237,203,0
3460024,39,312,217,0
3460034,38,332,180,0
3460044,45,282,180,0
3460054,40,276,171,0
3460064,38,246,153,0
3460074,39,248,145,0
3460084,40,238,142,0
3460094,41,276,168,0
3460104,42,304,162,0
3460114,39,310,143,0
3460124,38,328,125,0
3460134,36,335,142,0
3460144,40,282,159,0
3460154,37,288,149,0
3460164,38,281,153,0
3460174,38,292,155,0
3460184,39,259,146,0
3460194,38,304,157,0
3460205,36,245,179,0
3460215,41,314,198,0
3460225,37,257,184,0
3460235,38,277,153,0
3460245,40,314,179,0
3460255,39,252,191,0
3460265,40,301,171,0
3460275,38,399,144,0
3460285,35,407,150,0
3460295,35,422,165,0
3460305,37,348,139,0
3460315,41,321,140,0
3460325,41,365,143,0
3460335,38,311,141,0
3460345,37,266,133,0
3460355,37,282,142,0
3460365,42,329,146,0
3460375,39,292,141,0
3460385,35,374,123,0
3460395,39,317,132,0
3460406,38,264,129,0
3460416,40,330,138,0
3460426,40,371,155,0
3460436,36,400,145,0
3460446,36,363,143,0
3460456,36,327,146,0
3460466,40,329,175,0
3460476,39,290,172,0
3460486,42,367,160,0
3460496,39,334,176,0
3460506,37,291,170,0
3460516,36,299,184,0
3460526,39,242,168,0
3460536,41,246,158,0
3460546,38,296,170,0
3460556,43,306,162,0
3460566,36,263,164,0
3460576,38,303,161,0
3460586,40,287,131,0
3460596,42,267,141,0
3460606,43,314,138,0
3460617,43,330,146,0
3460627,41,308,165,0
3460637,39,283,151,0
3460647,39,345,160,0
3460657,39,298,158,0
3460667,41,253,174,0
3460677,41,230,150,0
3460687,41,319,175,0
3460697,42,287,174,0
3460707,44,297,195,0
3460717,45,290,206,0
3460727,47,310,192,0
3460737,40,390,204,0
3460747,40,427,194,0
3460757,41,350,184,0
3460767,39,432,191,0
3460777,41,397,157,0
3460787,37,495,162,0
3460797,42,437,149,0
3460807,41,373,146,0
3460817,39,291,146,0
3460828,40,269,130,0
3460838,36,278,113,0
3460848,41,255,115,0
3460858,40,240,141,0
3460868,40,263,151,0
3460878,42,235,142,0
3460888,37,225,133,0
3460898,38,253,127,0
3460908,41,251,117,0
3460918,40,271,97,0
3460928,40,272,113,0
3460938,39,290,118,0
3460948,40,273,150,0
3460958,44,286,138,0
3460968,42,281,138,0
3460978,42,302,131,0
3460988,38,329,141,0
3460998,40,273,161,0
3461008,37,255,148,0
3461018,38,285,140,0
3461029,39,425,136,0
3461039,37,382,121,0
3461049,41,406,138,0
3461059,37,405,137,0
3461069,38,347,137,0
3461079,39,341,147,0
3461089,33,356,149,0
3461099,40,339,164,0
3461109,40,292,154,0
3461119,37,343,147,0
3461129,34,369,144,0
3461139,36,358,140,0
3461149,34,308,170,0
3461159,39,345,150,0
3461169,37,322,155,0
3461179,39,348,159,0
3461189,40,312,148,0
3461199,45,345,149,0
3461209,44,317,136,0
3461219,41,293,120,0
3461229,36,294,138,0
3461240,36,341,130,0
3461250,38,349,125,0
3461260,39,281,140,0
3461270,37,279,133,0
3461280,38,277,140,0
3461290,41,370,134,0
3461300,41,408,136,0
3461310,44,457,131,0
3461320,38,382,131,0
3461330,39,460,149,0
3461340,42,406,151,0
3461350,40,385,157,0
3461360,42,408,136,0
3461370,45,385,144,0
3461380,44,385,156,0
3461390,45,385,150,0
3461400,44,312,134,0
3461410,41,284,141,0
3461420,42,329,146,0
3461430,42,334,134,0
3461441,44,342,139,0
3461451,44,267,147,0
3461461,52,311,138,0
3461471,49,350,195,0
3461481,50,381,194,0
3461491,47,309,197,0
3461501,47,377,207,0
3461511,43,387,175,0
3461521,41,342,158,0
3461531,39,354,153,0
3461541,39,407,162,0
3461551,40,332,156,0
3461561,38,305,161,0
3461571,39,283,153,0
3461581,38,372,141,0
3461591,37,376,139,0
3461601,37,414,154,0
3461611,40,356,166,0
3461621,37,363,156,0
3461631,38,340,152,0
3461641,41,379,160,0
3461652,42,365,157,0
3461662,39,366,141,0
3461672,40,309,149,0
3461682,43,280,145,0
3461692,41,349,165,0
3461702,39,287,160,0
3461712,40,353,139,0
3461722,40,330,138,0
3461732,41,295,163,0
3461742,37,316,154,0
3461752,37,294,144,0
3461762,37,273,134,0
3461772,36,334,140,0
3461782,38,364,133,0
3461792,39,308,139,0
3461802,35,295,139,0
3461812,37,343,135,0
3461822,39,281,123,0
3461832,39,286,133,0
3461842,39,301,134,0
3461852,40,341,128,0
3461863,40,324,135,0
3461873,40,303,133,0
3461883,40,307,141,0
3461893,41,295,151,0
3461903,37,343,133,0
3461913,35,317,140,0
3461923,38,256,143,0
3461933,44,298,152,0
3461943,46,282,160,0
3461953,46,286,156,0
3461963,44,257,143,0
3461973,39,273,149,0
3461983,41,248,162,0
3461993,41,288,151,0
3462003,37,316,150,0
3462013,42,318,167,0
3462023,37,346,164,0
3462033,37,330,154,0
3462043,39,359,150,0
3462053,36,374,136,0
3462064,41,330,134,0
3462074,43,355,159,0
3462084,41,356,175,0
3462094,44,318,151,0
3462104,38,329,155,0
3462114,46,280,161,0
3462124,45,291,176,0
3462134,44,327,161,0
3462144,43,314,156,0
3462154,41,371,154,0
3462164,40,401,187,0
3462174,42,362,188,0
3462184,40,390,174,0
3462194,38,365,185,0
3462204,40,301,168,0
3462214,38,289,171,0
3462224,43,363,192,0
3462234,47,353,226,0
3462244,42,384,220,0
3462254,41,383,221,0
3462264,39,348,188,0
3462275,40,370,183,0
3462285,44,381,175,0
3462295,39,333,199,0
3462305,39,388,173,0
3462315,35,336,175,0
3462325,39,305,159,0
3462335,41,362,173,0
3462345,42,390,147,0
3462355,39,445,147,0
3462365,38,388,152,0
3462375,39,414,163,0
3462385,39,388,174,0
3462395,36,400,162,0
3462405,38,393,168,0
3462415,42,409,164,0
3462425,41,421,159,0
3462435,43,341,187,702
3462445,45,389,164,0
3462455,43,399,174,0
3462465,42,392,173,0
3462476,40,333,151,0
3462486,39,313,147,0
3462496,42,344,136,0
3462506,39,392,154,0
3462516,35,386,169,0
3462526,36,358,157,0
3462536,34,369,180,0
3462546,39,294,168,0
3462556,36,388,168,0
3462566,42,423,165,0
3462576,42,372,144,0
3462586,44,300,149,0
3462596,44,230,154,0
3462606,39,219,164,0
3462616,40,338,163,0
3462626,41,369,169,0
3462636,38,314,167,0
3462646,40,283,140,0
3462656,39,248,137,0
3462666,45,209,149,0
3462676,44,190,142,0
3462687,45,281,147,0
3462697,44,316,144,0
3462707,41,352,127,0
3462717,44,297,147,0
3462727,42,292,141,0
3462737,38,216,141,0
3462747,40,264,136,0
3462757,40,248,136,0
3462767,39,336,139,0
3462777,42,297,145,0
3462787,39,348,128,0
3462797,39,420,137,0
3462807,38,375,129,0
3462817,42,401,129,0
3462827,41,329,123,0
3462837,41,373,136,0
3462847,40,338,129,0
3462857,40,301,138,0
3462867,40,298,135,0
3462877,42,265,139,0
3462887,41,302,134,0
3462898,42,305,138,0
3462908,43,327,145,0
3462918,43,282,145,0
3462928,46,255,166,0
3462938,42,219,190,0
3462948,40,298,178,0
3462958,43,227,211,0
3462968,39,217,186,0
3462978,40,252,169,0
3462988,41,231,149,0
3462998,38,235,141,0
3463008,40,271,146,0
3463018,40,355,140,0
3463028,41,337,135,0
3463038,36,327,138,0
3463048,35,361,151,0
3463058,38,287,154,0
3463068,40,361,140,0
3463078,38,332,138,0
3463088,39,307,128,0
3463099,37,252,143,0
3463109,38,200,141,0
3463119,41,203,129,0
3463129,38,196,135,0
3463139,37,224,142,0
3463149,37,255,143,0
3463159,37,252,132,0
3463169,36,265,126,0
3463179,38,303,130,0
3463189,37,281,126,0
3463199,38,286,135,0
3463209,39,251,127,0
3463219,38,248,130,0
3463229,38,219,132,0
3463239,34,262,136,0
3463249,39,268,137,0
3463259,39,271,134,0
3463269,34,277,117,0
3463279,38,287,120,0
3463289,36,278,122,0
3463299,42,284,132,0
3463310,43,304,126,0
3463320,39,248,128,0
3463330,38,250,124,0
3463340,33,249,125,0
3463350,38,186,145,0
3463360,38,158,139,0
3463370,37,193,130,0
3463380,40,176,131,0
3463390,37,183,130,0
3463400,39,240,138,0
3463410,39,244,137,0
3463420,37,329,125,0
3463430,37,332,132,0
3463440,37,293,134,0
3463450,36,274,140,0
3463460,39,211,142,0
3463470,36,182,128,0
3463480,36,136,129,0
3463490,37,106,130,0
3463500,39,99,130,0
3463511,37,84,133,0
3463521,38,77,127,0
3463531,41,143,135,0
3463541,38,164,142,0
3463551,39,200,145,0
3463561,42,178,145,0
3463571,42,194,137,0
3463581,38,202,139,0
3463591,39,181,140,0
3463601,39,135,142,0
3463611,38,163,130,0
3463621,35,150,121,0
3463631,41,132,126,0
3463641,43,124,137,0
3463651,46,132,166,0
3463661,41,111,189,0
3463671,42,129,187,0
3463681,40,190,201,0
3463691,40,179,200,0
3463701,42,208,172,0
3463711,36,185,154,0
3463722,37,181,138,0
3463732,37,199,137,0
3463742,37,159,130,0
3463752,37,129,132,0
3463762,36,143,130,0
3463772,35,110,130,0
3463782,36,119,128,0
3463792,36,124,125,0
3463802,40,149,132,0
3463812,36,186,121,0
3463822,33,186,130,0
3463832,33,148,132,0
3463842,34,148,128,0
3463852,36,185,134,0
3463862,35,173,140,0
3463872,35,158,140,0
3463882,35,157,140,0
3463892,36,153,140,0
3463902,36,129,128,0
3463912,36,109,129,0
3463922,33,107,130,0
3463933,38,97,135,0
3463943,37,155,133,0
3463953,39,118,130,0
3463963,38,141,131,0
3463973,36,133,128,0
3463983,37,144,142,0
3463993,34,186,136,0
3464003,36,185,132,0
3464013,37,202,137,0
3464023,34,211,140,0
3464033,36,219,142,0
3464043,37,175,133,0
3464053,37,141,121,0
3464063,36,119,134,0
3464073,34,119,130,0
3464083,36,118,137,0
3464093,38,106,136,0
3464103,36,121,123,0
3464113,38,132,120,0
3464123,33,107,120,0
3464134,35,102,130,0
3464144,34,123,128,0
3464154,34,140,121,0
3464164,32,143,137,0
3464174,36,112,128,0
3464184,39,113,146,0
3464194,39,100,142,0
3464204,35,95,126,0
3464214,40,105,137,0
3464224,36,144,129,0
3464234,36,174,136,0
3464244,36,176,138,0
3464254,38,190,141,0
3464264,40,168,145,0
3464274,41,181,138,0
3464284,39,163,138,0
3464294,37,155,129,0
3464304,36,130,125,0
3464314,35,119,126,0
3464324,36,144,140,0
3464334,37,137,136,0
3464345,38,172,136,0
3464355,44,152,134,0
3464365,48,136,182,0
3464375,50,137,172,0
3464385,47,152,169,0
3464395,45,141,188,0
3464405,36,124,156,0
3464415,37,101,153,0
3464425,36,101,142,0
3464435,35,89,146,0
3464445,34,88,139,1001
3464455,35,89,130,0
3464465,33,118,122,0
3464475,34,99,127,0
3464485,32,104,125,0
3464495,29,100,121,0
3464505,29,94,119,0
3464515,27,113,107,0
3464525,26,120,109,0
3464535,30,127,108,0
3464545,30,170,111,0
3464556,29,194,104,0
3464566,29,185,99,0
3464576,30,171,110,0
3464586,31,142,114,0
3464596,30,149,107,0
3464606,29,141,109,0
3464616,30,127,107,0
3464626,27,123,123,0
3464636,27,104,113,0
3464646,25,89,103,0
3464656,25,73,100,0
3464666,27,82,102,0
3464676,28,89,95,0
3464686,26,95,85,0
3464696,28,126,88,0
3464706,24,144,85,0
3464716,27,131,84,0
3464726,26,115,77,0
3464736,26,170,82,0
3464746,27,182,86,0
3464757,25,203,86,0
3464767,27,179,89,0
3464777,25,158,74,0
3464787,23,122,72,0
3464797,20,107,76,0
3464807,21,87,74,0
3464817,24,106,81,0
3464827,24,165,75,0
3464837,22,129,78,0
3464847,24,106,79,0
3464857,19,104,74,0
3464867,19,146,73,0
3464877,18,170,71,0
3464887,18,219,69,0
3464897,22,175,70,0
3464907,22,145,70,0
3464917,25,115,80,0
3464927,27,93,73,0
3464937,26,108,63,0
3464947,20,108,58,0
3464957,18,105,58,0
3464968,18,105,61,0
3464978,19,116,67,0
3464988,19,115,69,0
3464998,21,130,61,0
3465008,27,184,66,0
3465018,26,142,133,0
3465028,28,124,138,0
3465038,23,115,139,0
3465048,20,108,143,0
3465058,21,121,128,0
3465068,19,125,107,0
3465078,19,109,88,0
3465088,16,112,74,0
3465098,15,109,70,0
3465108,17,97,64,0
3465118,15,107,62,0
3465128,14,106,64,0
3465138,13,120,59,0
3465148,14,121,68,0
3465158,15,115,65,0
3465168,15,106,55,0
3465179,17,91,51,0
3465189,16,114,55,0
3465199,16,89,59,0
3465209,17,82,55,0
3465219,17,90,52,0
3465229,17,85,54,0
3465239,18,80,56,0
3465249,15,71,54,0
3465259,16,105,49,0
3465269,17,129,47,0
3465279,16,109,52,0
3465289,17,110,56,0
3465299,18,122,64,0
3465309,17,130,68,0
3465319,17,147,57,0
3465329,16,141,60,0
3465339,19,117,54,0
3465349,19,99,62,0
3465359,20,92,56,0
3465369,17,86,58,0
3465380,18,91,57,0
3465390,14,88,49,0
3465400,14,115,55,0
3465410,16,124,54,0
3465420,19,99,55,0
3465430,17,118,61,0
3465440,15,113,55,0
3465450,15,100,55,0
3465460,13,111,56,0
3465470,16,138,53,0
3465480,15,139,56,0
3465490,16,136,60,0
3465500,17,124,67,0
3465510,17,126,67,0
3465520,18,129,62,0
3465530,20,153,69,0
3465540,20,119,67,0
3465550,23,110,75,0
3465560,23,94,72,0
3465570,21,108,70,0
3465580,20,109,58,0
3465591,19,123,54,0
3465601,17,118,55,0
3465611,18,104,54,0
3465621,17,131,63,0
3465631,25,147,60,0
3465641,31,183,57,0
3465651,29,140,113,0
3465661,32,109,146,0
3465671,26,116,154,0
3465681,25,151,171,0
3465691,20,136,151,0
3465701,17,104,121,0
3465711,16,107,91,0
3465721,16,108,74,0
3465731,15,103,62,0
3465741,15,117,61,0
3465751,17,133,58,0
3465761,18,146,57,0
3465771,16,113,57,0
3465781,17,101,57,0
3465791,16,122,59,0
3465802,18,109,66,0
3465812,18,96,69,0
3465822,20,114,65,0
3465832,19,156,60,0
3465842,18,196,64,0
3465852,17,159,65,1000
3465862,19,173,56,800
3465872,17,153,60,0
3465882,16,112,63,0
3465892,19,94,65,0
3465902,17,108,57,0
3465912,17,126,54,0
3465922,16,144,59,0
3465932,16,158,61,0
3465942,14,123,50,0
3465952,14,128,52,0
3465962,14,109,52,0
3465972,14,83,47,0
3465982,13,95,51,0
3465992,15,103,51,0
3466002,17,107,52,0
3466013,17,98,49,0
3466023,16,98,52,0
3466033,15,82,54,0
3466043,16,85,51,0
3466053,20,81,50,0
3466063,17,89,46,0
3466073,14,136,47,0
3466083,15,115,50,0
3466093,16,114,51,0
3466103,15,133,54,0
3466113,16,107,51,0
3466123,13,93,59,0
3466133,15,89,59,0
3466143,16,98,56,0
3466153,15,102,57,0
3466163,19,91,61,0
3466173,17,114,60,0
3466183,21,106,62,0
3466193,22,94,62,0
3466203,20,98,64,0
3466214,21,96,60,0
3466224,18,134,56,0
3466234,17,210,55,0
3466244,19,220,55,0
3466254,14,287,58,0
3466264,18,236,67,0
3466274,21,183,62,0
3466284,33,155,67,0
3466294,32,140,142,0
3466304,35,122,162,0
3466314,25,128,165,0
3466324,23,142,183,0
3466334,24,152,151,0
3466344,22,144,122,0
3466354,18,126,94,0
3466364,17,110,83,0
3466374,16,104,70,0
3466384,17,89,69,0
3466394,18,98,77,0
3466404,17,97,68,0
3466414,15,102,76,0
3466425,13,122,66,0
3466435,15,110,63,0
3466445,18,114,60,0
3466455,17,110,58,0
3466465,16,99,61,0
3466475,18,105,56,0
3466485,20,98,65,0
3466495,17,116,57,0
3466505,19,105,57,0
3466515,20,80,54,0
3466525,16,88,61,0
3466535,18,125,57,0
3466545,16,125,62,0
3466555,14,102,65,0
3466565,14,158,56,0
3466575,15,152,55,0
3466585,14,131,55,0
3466595,16,122,62,0
3466605,14,166,63,0
3466615,17,178,55,0
3466625,16,171,56,0
3466636,15,136,58,0
3466646,15,210,56,0
3466656,14,215,58,0
3466666,15,219,60,0
3466676,17,239,66,0
3466686,16,197,68,0
3466696,17,206,60,0
3466706,14,155,64,0
3466716,15,121,61,0
3466726,17,104,54,0
3466736,18,112,61,0
3466746,17,94,54,0
3466756,17,81,54,0
3466766,16,69,59,0
3466776,19,67,55,0
3466786,15,61,50,0
3466796,15,52,54,0
3466806,16,54,68,0
3466816,15,57,68,0
3466826,15,54,68,0
3466836,16,54,74,0
3466847,16,69,65,0
3466857,17,102,61,0
3466867,21,180,71,0
3466877,20,184,65,0
3466887,20,174,62,0
3466897,17,172,60,0
3466907,19,148,59,0
3466917,18,143,62,0
3466927,15,178,57,0
3466937,18,203,62,0
3466947,24,194,58,0
3466957,34,158,58,0
3466967,30,121,98,0
3466977,29,176,112,0
3466987,24,178,133,0
3466997,21,178,152,0
3467007,18,173,123,0
3467017,16,141,98,0
3467027,16,147,86,0
3467037,17,135,79,0
3467048,16,131,79,0
3467058,15,161,73,0
3467068,18,144,77,0
3467078,17,189,70,0
3467088,17,179,75,0
3467098,19,170,63,0
3467108,18,158,62,0
3467118,17,118,60,0
3467128,17,154,56,0
3467138,14,144,57,0
3467148,14,177,55,0
3467158,15,190,53,0
3467168,18,275,55,0
3467178,17,206,53,0
3467188,22,251,64,0
3467198,21,224,77,0
3467208,18,221,82,0
3467218,19,219,86,0
3467228,21,171,65,0
3467238,17,171,64,0
3467248,18,192,66,0
3467259,17,187,67,0
3467269,18,246,66,0
3467279,16,285,88,0
3467289,15,291,123,0
3467299,17,240,109,0
3467309,21,289,85,0
3467319,19,258,75,0
3467329,17,249,68,0
3467339,17,219,71,0
3467349,17,186,70,0
3467359,16,234,63,801
3467369,17,190,54,0
3467379,17,165,55,0
3467389,20,217,70,0
3467399,19,202,70,0
3467409,18,188,91,0
3467419,19,163,77,0
3467429,21,143,68,0
3467439,20,191,61,0
3467449,19,161,52,0
3467460,18,246,61,0
3467470,17,242,75,0
3467480,19,265,82,0
3467490,17,277,100,0
3467500,17,236,96,0
3467510,15,271,92,0
3467520,15,313,76,0
3467530,17,314,76,0
3467540,16,359,80,0
3467550,17,369,102,0
3467560,16,304,141,0
3467570,20,249,114,0
3467580,23,244,101,0
3467590,30,311,135,0
3467600,31,280,202,0
3467610,28,287,167,0
3467620,27,306,170,0
3467630,23,255,180,0
3467640,18,199,144,0
3467650,19,195,128,0
3467660,16,201,99,0
3467671,19,168,86,0
3467681,21,171,85,0
3467691,23,185,85,0
3467701,20,167,81,0
3467711,19,176,84,0
3467721,18,179,74,0
3467731,20,220,76,0
3467741,18,218,80,0
3467751,17,218,78,0
3467761,16,246,84,0
3467771,17,247,84,0
3467781,18,223,74,0
3467791,17,238,78,0
3467801,17,284,70,0
3467811,16,330,79,0
3467821,17,267,80,0
3467831,17,241,83,0
3467841,16,270,78,0
3467851,19,221,91,0
3467861,18,280,78,0
3467871,21,256,81,0
3467882,17,262,87,0
3467892,17,272,100,0
3467902,17,228,96,0
3467912,16,225,90,0
3467922,18,246,78,0
3467932,17,286,85,0
3467942,18,244,84,0
3467952,17,264,87,0
3467962,19,228,95,0
3467972,20,178,84,0
3467982,18,188,86,0
3467992,15,207,79,0
3468002,15,261,69,0
3468012,15,241,62,0
3468022,15,294,66,0
3468032,18,276,83,0
3468042,16,274,88,0
3468052,18,233,124,0
3468062,15,218,96,0
3468072,17,199,101,0
3468083,16,224,93,0
3468093,17,242,87,0
3468103,17,314,98,0
3468113,19,217,110,0
3468123,16,241,117,0
3468133,19,269,123,0
3468143,19,283,101,0
3468153,18,253,114,0
3468163,19,249,107,0
3468173,18,248,103,0
3468183,23,266,116,0
3468193,25,327,108,0
3468203,32,360,137,0
3468213,32,306,152,0
3468223,28,378,155,0
3468233,26,296,172,0
3468243,24,250,143,0
3468253,21,255,124,0
3468263,18,252,119,0
3468273,20,218,108,0
3468283,23,204,98,0
3468294,23,213,104,0
3468304,21,205,113,0
3468314,19,214,126,0
3468324,17,235,104,0
3468334,20,270,109,0
3468344,23,250,105,0
3468354,20,273,123,0
3468364,17,271,120,0
3468374,15,285,114,0
3468384,18,240,126,0
3468394,20,258,130,0
3468404,22,207,114,0
3468414,21,249,106,0
3468424,18,196,121,0
3468434,19,195,123,0
3468444,17,194,132,0
3468454,19,218,135,0
3468464,18,262,109,0
3468474,22,268,102,0
3468484,29,252,116,0
3468495,26,350,114,0
3468505,22,292,103,0
3468515,19,303,79,0
3468525,20,301,85,0
3468535,23,293,92,0
3468545,25,262,107,0
3468555,29,224,110,0
3468565,25,235,115,0
3468575,21,265,105,0
3468585,21,278,119,0
3468595,22,339,94,0
3468605,21,360,99,0
3468615,21,349,85,0
3468625,22,391,91,0
3468635,23,314,101,0
3468645,23,268,101,0
3468655,23,230,103,0
3468665,18,206,81,0
3468675,23,290,77,0
3468685,22,301,80,0
3468695,25,266,87,0
3468706,29,342,88,0
3468716,28,311,92,0
3468726,24,316,88,0
3468736,25,330,118,0
3468746,23,346,113,0
3468756,27,321,99,0
3468766,22,305,105,0
3468776,23,362,109,0
3468786,24,281,107,0
3468796,22,317,96,0
3468806,27,271,82,0
3468816,27,231,99,0
3468826,23,308,106,0
3468836,33,304,122,0
3468846,30,327,149,0
3468856,29,346,167,0
3468866,26,345,181,0
3468876,27,315,192,0
3468886,22,301,171,0
3468896,22,311,141,0
3468907,20,303,132,0
3468917,19,304,131,0
3468927,17,279,118,0
3468937,18,303,97,0
3468947,17,350,108,0
3468957,25,264,113,0
3468967,22,243,119,0
3468977,25,258,113,0
3468987,26,314,100,0
3468997,25,259,102,0
3469007,24,324,125,0
3469017,27,319,100,0
3469027,24,345,95,0
3469037,23,330,97,0
3469047,24,278,93,0
3469057,23,306,105,0
3469067,24,298,115,0
3469077,23,297,111,0
3469087,22,379,132,0
3469097,23,399,114,0
3469107,22,381,108,0
3469118,22,379,117,0
3469128,26,363,106,0
3469138,27,401,119,0
3469148,34,370,153,0
3469158,28,419,136,0
3469168,24,393,123,0
3469178,23,357,141,0
3469188,21,394,112,0
3469198,21,390,100,0
3469208,23,334,91,0
3469218,22,341,90,0
3469228,24,355,96,0
3469238,24,338,110,0
3469248,21,312,96,0
3469258,22,384,100,0
3469268,22,366,102,0
3469278,21,305,112,0
3469288,19,280,110,0
3469298,21,305,114,0
3469308,21,301,104,0
3469319,19,379,108,0
3469329,19,314,139,0
3469339,21,344,116,0
3469349,22,396,113,0
3469359,20,323,122,0
3469369,19,360,119,0
3469379,18,385,126,0
3469389,20,316,141,0
3469399,20,281,114,0
3469409,20,311,108,0
3469419,20,277,96,0
3469429,21,267,100,0
3469439,19,277,100,0
3469449,20,291,94,0
3469459,17,308,117,0
3469469,20,359,114,0
3469479,24,367,108,0
3469489,35,319,124,0
3469499,34,302,179,0
3469509,34,262,141,0
3469519,28,279,180,0
3469530,23,312,198,0
3469540,22,296,167,0
3469550,24,312,133,0
3469560,23,353,136,0
3469570,20,311,119,0
3469580,20,359,128,0
3469590,20,340,133,0
3469600,21,265,123,0
3469610,22,322,141,0
3469620,22,361,131,0
3469630,19,308,147,0
3469640,17,335,140,0
3469650,17,326,128,0
3469660,19,307,142,0
3469670,21,306,130,0
3469680,21,301,106,0
3469690,21,363,93,0
3469700,19,374,117,0
3469710,20,332,115,0
3469720,20,380,104,0
3469731,19,359,84,0
3469741,19,470,78,0
3469751,17,380,80,0
3469761,18,391,101,0
3469771,18,364,96,0
3469781,18,306,97,0
3469791,21,378,87,0
3469801,18,345,103,0
3469811,18,372,127,0
3469821,18,397,133,0
3469831,20,327,111,0
3469841,21,316,120,0
3469851,22,307,107,0
3469861,21,355,110,0
3469871,20,356,138,0
3469881,22,441,115,0
3469891,22,364,115,0
3469901,20,365,98,0
3469911,18,355,90,0
3469921,21,325,94,0
3469931,21,390,102,0
3469942,19,336,93,0
3469952,20,396,100,0
3469962,23,288,88,0
3469972,21,357,95,0
3469982,20,371,103,0
3469992,20,337,89,0
3470002,17,351,84,0
3470012,18,317,79,0
3470022,22,296,81,0
3470032,23,297,94,0
3470042,21,272,89,0
3470052,23,302,83,0
3470062,18,297,96,0
3470072,20,301,94,0
3470082,19,311,83,0
3470092,17,387,86,0
3470102,18,345,101,0
3470112,24,366,94,0
3470122,32,314,87,0
3470132,34,334,140,0
3470143,33,303,154,0
3470153,30,313,176,0
3470163,25,305,159,0
3470173,23,349,154,0
3470183,23,380,150,0
3470193,20,345,143,0
3470203,18,336,145,0
3470213,20,311,126,0
3470223,20,321,108,0
3470233,21,323,105,0
3470243,21,271,91,0
3470253,20,343,112,0
3470263,21,382,110,0
3470273,17,392,110,0
3470283,18,358,114,0
3470293,17,354,117,0
3470303,16,302,122,0
3470313,16,385,115,0
3470323,16,348,122,0
3470333,18,305,133,0
3470343,17,373,101,0
3470354,18,321,88,0
3470364,15,307,100,802
3470374,17,304,115,0
3470384,20,282,128,0
3470394,20,308,118,0
3470404,19,298,104,0
3470414,18,270,116,0
3470424,21,335,112,0
3470434,21,281,95,0
3470444,22,260,85,0
3470454,28,261,78,0
3470464,25,210,70,0
3470474,22,254,83,0
3470484,22,225,80,0
3470494,26,202,76,0
3470504,20,197,74,0
3470514,21,216,66,0
3470524,19,245,68,0
3470534,23,279,64,0
3470544,20,274,81,0
3470555,21,219,74,0
3470565,19,261,87,0
3470575,18,241,84,0
3470585,18,214,76,0
3470595,19,287,75,0
3470605,18,291,70,0
3470615,18,300,76,0
3470625,20,297,80,0
3470635,19,259,80,0
3470645,18,326,91,0
3470655,21,270,78,0
3470665,20,303,78,0
3470675,20,281,104,0
3470685,21,274,103,0
3470695,21,268,95,0
3470705,16,239,86,0
3470715,15,252,95,0
3470725,14,268,93,0
3470735,23,264,88,0
3470745,26,276,95,0
3470755,32,256,164,0
3470766,36,258,204,0
3470776,27,236,182,0
3470786,28,199,236,0
3470796,23,240,196,0
3470806,21,261,161,0
3470816,19,266,121,0
3470826,15,225,105,0
3470836,18,193,92,0
3470846,17,280,93,0
3470856,17,275,92,0
3470866,19,290,91,0
3470876,19,308,73,0
3470886,17,216,79,0
3470896,16,324,76,0
3470906,17,254,66,0
3470916,19,289,91,0
3470926,18,317,87,0
3470936,22,293,75,0
3470946,20,285,73,0
3470956,16,262,73,0
3470967,15,231,74,0
3470977,16,231,70,0
3470987,18,196,80,0
3470997,18,203,76,0
3471007,18,237,81,0
3471017,20,269,74,0
3471027,19,240,74,0
3471037,21,270,67,0
3471047,17,293,76,0
3471057,15,251,67,0
3471067,18,284,57,0
3471077,18,292,56,0
3471087,16,236,59,0
3471097,17,248,53,0
3471107,17,209,64,0
3471117,17,238,84,0
3471127,17,219,88,0
3471137,21,239,82,0
3471147,17,228,74,0
3471157,15,260,70,0
3471167,16,233,67,0
3471178,14,206,65,0
3471188,18,193,62,0
3471198,18,177,56,0
3471208,16,147,55,0
3471218,15,183,56,0
3471228,18,191,57,0
3471238,17,219,55,0
3471248,16,168,54,0
3471258,13,147,61,0
3471268,13,126,70,0
3471278,16,144,76,0
3471288,15,129,76,0
3471298,15,172,68,0
3471308,17,195,64,0
3471318,17,241,60,0
3471328,18,207,57,0
3471338,17,210,57,0
3471348,16,160,57,0
3471358,16,138,62,0
3471368,15,186,62,0
3471379,15,180,59,0
3471389,16,234,70,0
3471399,16,193,61,0
3471409,15,204,66,0
3471419,15,158,61,0
3471429,14,149,60,0
3471439,16,119,66,0
3471449,22,106,66,0
3471459,27,91,58,0
3471469,35,104,91,0
3471479,34,101,141,0
3471489,30,96,133,0
3471499,23,72,168,0
3471509,20,79,156,0
3471519,19,70,118,0
3471529,20,60,90,0
3471539,22,48,70,0
3471549,19,43,62,0
3471559,16,43,66,0
3471569,17,41,68,0
3471579,16,44,62,0
3471590,17,48,55,0
3471600,16,44,64,0
3471610,14,58,60,0
3471620,14,58,63,0
3471630,16,54,53,0
3471640,16,58,56,0
3471650,19,67,58,0
3471660,18,63,57,0
3471670,18,63,61,0
3471680,18,53,65,0
3471690,16,47,68,0
3471700,17,53,65,0
3471710,15,53,66,0
3471720,14,46,68,0
3471730,16,51,65,0
3471740,13,47,57,0
3471750,15,57,59,0
3471760,15,51,56,0
3471770,14,47,55,0
3471780,13,52,61,0
3471790,14,56,55,0
3471801,15,51,56,0
3471811,13,51,59,0
3471821,14,62,62,0
3471831,18,63,52,0
3471841,18,69,51,0
3471851,16,63,53,0
3471861,17,61,56,0
3471871,18,52,59,0
3471881,17,57,59,0
3471891,16,63,53,0
3471901,15,60,64,0
3471911,14,53,58,0
3471921,17,52,56,0
3471931,17,51,51,0
3471941,14,48,51,0
3471951,17,46,44,0
3471961,17,45,47,0
3471971,19,47,45,0
3471981,17,49,45,0
3471991,16,55,58,0
3472001,16,51,54,0
3472012,16,51,59,0
3472022,16,51,61,0
3472032,16,45,64,0
3472042,15,44,64,0
3472052,14,47,60,0
3472062,16,58,63,0
3472072,18,59,61,0
3472082,17,61,61,0
3472092,15,55,66,0
3472102,13,52,66,0
3472112,16,60,68,0
3472122,15,63,64,0
3472132,13,61,61,0
3472142,16,59,53,0
3472152,19,53,52,0
3472162,18,58,55,0
3472172,18,52,61,0
3472182,16,48,54,0
3472192,18,50,46,0
3472202,16,62,47,0
3472212,17,68,47,0
3472223,14,64,55,0
3472233,22,59,59,0
3472243,26,58,59,0
3472253,33,65,103,0
3472263,35,70,158,0
3472273,31,68,143,0
3472283,24,88,168,0
3472293,21,98,143,0
3472303,19,82,109,0
3472313,18,65,85,0
3472323,18,52,70,0
3472333,18,40,70,0
3472343,17,34,66,0
3472353,20,34,60,0
3472363,19,38,58,1001
3472373,19,37,58,0
3472383,20,46,48,0
3472393,19,44,50,0
3472403,18,37,55,0
3472413,18,37,50,0
3472424,16,37,49,0
3472434,17,43,50,0
3472444,17,61,62,0
3472454,17,82,63,0
3472464,17,72,58,0
3472474,16,64,56,0
3472484,17,58,55,0
3472494,16,61,53,0
3472504,16,60,64,0
3472514,14,62,64,0
3472524,15,70,64,0
3472534,12,64,58,0
3472544,14,72,56,0
3472554,16,66,59,0
3472564,18,57,55,0
3472574,18,52,60,0
3472584,18,60,62,0
3472594,16,60,58,0
3472604,17,59,52,0
3472614,16,55,51,0
3472624,16,71,52,0
3472635,15,63,56,0
3472645,18,51,52,0
3472655,17,44,47,0
3472665,16,44,46,0
3472675,19,50,53,0
3472685,19,46,60,0
3472695,16,50,59,0
3472705,17,51,57,0
3472715,14,51,60,0
3472725,17,60,57,0
3472735,17,65,54,0
3472745,18,65,54,0
3472755,18,59,56,0
3472765,17,57,50,0
3472775,18,65,53,0
3472785,16,88,59,0
3472795,14,75,61,0
3472805,15,70,60,0
3472815,17,77,65,0
3472825,17,85,60,0
3472835,17,75,63,0
3472846,17,69,61,0
3472856,18,58,60,0
3472866,18,49,66,0
3472876,19,53,65,0
3472886,19,50,66,0
3472896,18,42,64,0
3472906,19,42,59,0
3472916,20,50,58,0
3472926,22,47,49,0
3472936,25,43,50,0
3472946,28,58,62,0
3472956,27,79,147,0
3472966,27,75,137,0
3472976,24,88,176,0
3472986,21,79,180,0
3472996,18,66,142,0
3473006,18,61,115,0
3473016,16,65,100,0
3473026,15,53,86,0
3473036,17,63,80,0
3473047,14,54,63,0
3473057,14,49,60,0
3473067,15,50,60,0
3473077,14,46,58,0
3473087,18,37,59,0
3473097,17,40,54,0
3473107,13,36,54,0
3473117,16,42,63,0
3473127,14,41,56,0
3473137,18,48,57,0
3473147,18,51,61,0
3473157,18,52,53,0
3473167,19,52,62,0
3473177,17,49,55,0
3473187,18,47,51,0
3473197,16,46,51,0
3473207,16,50,50,0
3473217,15,50,51,0
3473227,14,57,45,0
3473237,16,56,50,0
3473247,15,46,51,0
3473258,14,51,52,0
3473268,14,57,52,0
3473278,16,57,58,0
3473288,16,57,58,0
3473298,15,49,57,0
3473308,13,44,49,0
3473318,16,43,55,0
3473328,16,46,62,0
3473338,17,44,56,0
3473348,17,45,49,0
3473358,17,46,50,0
3473368,14,44,54,0
3473378,15,46,61,0
3473388,16,44,57,0
3473398,14,46,56,0
3473408,15,43,58,0
3473418,15,48,59,0
3473428,14,56,63,0
3473438,13,48,63,0
3473448,15,43,66,0
3473458,14,42,64,0
3473469,14,43,60,0
3473479,17,57,65,0
3473489,17,52,65,0
3473499,16,55,62,0
3473509,18,56,71,0
3473519,18,49,70,0
3473529,17,52,59,0
3473539,19,50,57,0
3473549,16,49,56,0
3473559,17,52,57,0
3473569,16,51,55,0
3473579,17,52,60,0
3473589,23,49,61,0
3473599,26,58,73,0
3473609,33,79,98,0
3473619,31,89,158,0
3473629,27,88,141,0
3473639,23,128,165,0
3473649,18,126,153,0
3473659,18,93,116,0
3473669,19,73,89,0
3473680,17,60,71,0
3473690,14,46,62,0
3473700,15,48,62,0
3473710,19,47,65,0
3473720,14,48,65,0
3473730,16,48,60,0
3473740,21,40,58,0
3473750,19,39,60,0
3473760,15,39,60,0
3473770,15,39,52,0
3473780,15,40,51,0
3473790,18,39,54,0
3473800,18,43,58,0
3473810,16,41,52,0
3473820,18,40,63,0
3473830,14,42,62,0
3473840,16,52,61,0
3473850,15,47,63,0
3473860,16,45,54,0
3473870,19,49,58,0
3473881,17,46,56,0
3473891,17,49,54,0
3473901,16,46,49,0
3473911,15,43,53,0
3473921,17,40,52,0
3473931,14,34,50,0
3473941,16,37,49,0
3473951,17,38,55,0
3473961,17,47,59,0
3473971,16,41,60,0
3473981,17,47,57,0
3473991,17,40,52,0
3474001,16,39,62,0
3474011,14,47,64,0
3474021,15,57,59,0
3474031,18,61,61,0
3474041,17,54,55,0
3474051,16,52,52,0
3474061,16,50,55,0
3474071,19,48,55,0
3474081,16,42,48,0
3474092,17,43,62,0
3474102,16,41,66,0
3474112,16,51,65,0
3474122,16,45,67,0
3474132,12,43,62,0
3474142,12,40,56,0
3474152,12,52,48,0
3474162,15,51,63,0
3474172,14,52,68,0
3474182,18,58,60,0
3474192,19,50,59,0
3474202,18,49,64,0
3474212,17,46,65,0
3474222,16,49,64,0
3474232,14,46,61,600
3474242,14,56,65,0
3474252,14,50,54,0
3474262,16,44,61,0
3474272,15,44,53,0
3474282,16,53,65,0
3474292,17,69,63,0
3474303,33,86,63,0
3474313,31,111,134,0
3474323,30,95,124,0
3474333,24,120,155,0
3474343,21,129,161,0
3474353,20,108,132,0
3474363,17,85,106,0
3474373,16,65,79,0
3474383,16,50,68,0
3474393,14,50,60,0
3474403,17,60,66,0
3474413,17,53,57,0
3474423,19,46,55,0
3474433,18,55,50,0
3474443,14,53,57,0
3474453,18,51,52,0
3474463,18,48,56,0
3474473,15,44,56,0
3474483,13,45,56,0
3474493,11,44,62,0
3474503,15,55,64,0
3474514,15,57,57,0
3474524,14,50,56,0
3474534,16,50,51,0
3474544,15,53,56,0
3474554,14,46,51,0
3474564,16,43,49,0
3474574,14,45,54,0
3474584,18,44,56,0
3474594,16,51,53,0
3474604,18,56,55,0
3474614,16,62,56,0
3474624,15,54,61,0
3474634,16,49,58,0
3474644,17,51,59,0
3474654,15,45,60,0
3474664,14,51,50,0
3474674,13,51,49,0
3474684,17,49,60,0
3474694,16,50,57,0
3474704,15,43,62,0
3474714,16,42,60,0
3474725,15,40,53,0
3474735,14,42,55,0
3474745,14,50,54,0
3474755,16,53,62,0
3474765,15,55,57,0
3474775,16,59,55,0
3474785,17,76,56,0
3474795,15,65,57,0
3474805,17,63,50,0
3474815,19,55,48,0
3474825,18,85,46,0
3474835,18,82,46,0
3474845,18,107,57,0
3474855,19,84,57,0
3474865,17,105,49,0
3474875,13,112,54,0
3474885,15,106,49,0
3474895,15,177,55,0
3474905,16,198,53,0
3474915,18,149,66,0
3474926,18,121,62,0
3474936,17,120,66,0
3474946,19,116,67,0
3474956,20,91,75,0
3474966,18,85,70,0
3474976,17,101,71,0
3474986,18,87,67,0
3474996,15,78,83,0
3475006,15,84,73,0
3475016,16,116,60,0
3475026,16,119,58,0
3475036,20,92,58,0
3475046,19,97,62,0
3475056,31,81,92,0
3475066,31,79,149,0
3475076,28,83,134,0
3475086,22,81,172,0
3475096,20,94,159,0
3475106,20,85,120,0
3475116,18,71,95,0
3475126,17,68,82,0
3475137,17,64,83,0
3475147,18,69,66,0
3475157,17,71,68,0
3475167,16,58,68,0
3475177,18,64,59,0
3475187,17,66,59,0
3475197,16,60,62,0
3475207,15,77,57,0
3475217,15,141,56,0
3475227,13,181,51,0
3475237,16,210,51,0
3475247,16,327,57,0
3475257,18,256,56,0
3475267,18,231,56,0
3475277,16,188,56,0
3475287,16,149,63,0
3475297,18,151,54,0
3475307,17,125,49,0
3475317,15,129,53,0
3475327,16,150,54,0
3475337,17,191,46,0
3475348,16,150,50,0
3475358,14,120,64,0
3475368,16,100,60,0
3475378,14,99,55,0
3475388,15,180,55,0
3475398,17,149,50,0
3475408,15,174,60,0
3475418,19,202,71,0
3475428,17,183,89,0
3475438,16,174,85,0
3475448,17,193,82,0
3475458,15,152,98,0
3475468,17,241,82,0
3475478,14,242,80,0
3475488,15,242,70,0
3475498,15,231,61,0
3475508,17,218,75,0
3475518,17,205,64,0
3475528,16,187,71,0
3475538,17,147,75,0
3475549,19,125,71,0
3475559,17,142,77,0
3475569,16,149,61,0
3475579,18,196,78,0
3475589,19,201,68,0
3475599,20,202,58,0
3475609,19,194,63,0
3475619,17,153,75,0
3475629,16,114,81,0
3475639,17,113,81,0
3475649,15,112,77,0
3475659,19,105,62,0
3475669,16,124,115,0
3475679,15,121,95,0
3475689,16,126,103,0
3475699,17,96,113,0
3475709,15,96,94,0
3475719,23,88,96,0
3475729,25,159,89,0
3475739,28,219,129,601
3475749,30,189,136,0
3475760,25,172,173,0
3475770,23,216,168,0
3475780,22,211,131,0
3475790,22,206,102,0
3475800,21,158,89,0
3475810,17,147,76,0
3475820,18,133,70,0
3475830,16,109,88,0
3475840,16,122,93,0
3475850,17,172,83,0
3475860,16,144,78,0
3475870,17,171,76,0
3475880,19,153,69,0
3475890,19,148,65,0
3475900,19,116,68,0
3475910,19,105,70,0
3475920,21,85,79,0
3475930,21,81,79,0
3475940,25,113,87,0
3475950,21,124,90,0
3475960,20,117,79,0
3475971,17,138,73,0
3475981,19,147,68,0
3475991,19,145,65,0
3476001,19,151,69,0
3476011,19,128,62,0
3476021,19,129,81,0
3476031,18,129,88,0
3476041,19,140,95,0
3476051,21,124,91,0
3476061,17,112,96,0
3476071,18,119,93,0
3476081,16,118,88,0
3476091,18,127,75,0
3476101,19,142,92,0
3476111,22,131,88,0
3476121,18,123,93,0
3476131,18,136,101,0
3476141,17,160,99,0
3476151,18,176,105,0
3476161,17,175,93,0
3476172,16,154,96,0
3476182,15,171,88,0
3476192,17,273,91,0
3476202,19,313,109,0
3476212,17,500,123,0
3476222,19,484,134,0
3476232,19,363,107,0
3476242,17,303,97,0
3476252,16,284,102,0
3476262,19,260,104,0
3476272,17,202,94,0
3476282,19,205,86,0
3476292,19,176,89,0
3476302,21,168,81,0
3476312,24,168,91,0
3476322,23,149,117,0
3476332,20,158,102,0
3476342,21,143,108,0
3476352,27,146,104,0
3476362,24,149,85,0
3476372,33,192,108,0
3476383,33,215,192,0
3476393,31,193,170,0
3476403,29,176,155,0
3476413,29,174,145,0
3476423,22,222,162,0
3476433,20,191,140,0
3476443,20,192,122,0
3476453,21,163,113,0
3476463,20,140,107,0
3476473,24,126,133,0
3476483,21,126,127,0
3476493,25,154,122,0
3476503,24,177,124,0
3476513,22,190,98,0
3476523,24,216,127,0
3476533,23,225,149,0
3476543,22,205,145,0
3476553,23,180,120,0
3476563,18,141,110,0
3476573,22,126,116,0
3476583,21,139,103,0
3476594,20,192,105,0
3476604,27,213,107,0
3476614,22,228,119,0
3476624,26,205,116,0
3476634,25,156,100,0
3476644,24,161,112,0
3476654,27,158,114,0
3476664,27,167,118,0
3476674,27,152,105,0
3476684,26,165,96,0
3476694,27,178,121,0
3476704,26,215,166,0
3476714,26,195,155,0
3476724,25,166,175,0
3476734,22,162,144,0
3476744,21,192,114,0
3476754,24,203,98,0
3476764,26,200,89,0
3476774,29,163,95,0
3476784,31,163,93,0
3476795,30,164,110,0
3476805,28,188,111,0
3476815,27,159,118,0
3476825,26,180,118,0
3476835,24,165,112,0
3476845,25,160,90,0
3476855,21,152,96,0
3476865,27,193,102,0
3476875,29,185,115,0
3476885,29,186,113,0
3476895,30,226,94,0
3476905,25,276,121,0
3476915,24,237,114,0
3476925,21,173,113,0
3476935,20,160,120,0
3476945,19,198,104,0
3476955,22,178,129,0
3476965,21,203,116,0
3476975,25,188,105,0
3476985,32,170,93,0
3476995,32,187,102,0
3477006,32,228,103,0
3477016,29,185,178,0
3477026,26,192,179,0
3477036,24,213,253,0
3477046,23,202,189,0
3477056,21,166,148,0
3477066,19,192,147,0
3477076,26,195,120,0
3477086,25,158,98,0
3477096,22,169,82,0
3477106,23,179,89,0
3477116,22,232,105,0
3477126,22,210,104,0
3477136,24,212,112,0
3477146,23,213,103,0
3477156,19,221,97,0
3477166,18,220,92,0
3477176,19,186,104,0
3477186,20,189,110,0
3477196,21,218,93,0
3477207,21,211,87,0
3477217,22,181,89,0
3477227,25,160,71,0
3477237,21,151,76,0
3477247,21,142,70,0
3477257,23,158,110,0
3477267,25,175,124,0
3477277,27,165,148,0
3477287,24,151,110,0
3477297,24,170,117,0
3477307,28,206,110,0
3477317,28,182,98,0
3477327,24,170,98,0
3477337,20,150,100,0
3477347,23,168,103,0
3477357,23,172,86,0
3477367,25,193,104,0
3477377,24,193,87,0
3477387,22,221,100,0
3477397,20,213,87,0
3477407,22,200,86,0
3477418,24,194,87,0
3477428,28,167,101,0
3477438,26,151,89,0
3477448,26,145,101,0
3477458,29,131,101,0
3477468,31,176,109,0
3477478,32,165,111,0
3477488,34,143,103,0
3477498,29,162,106,0
3477508,26,193,99,0
3477518,26,164,100,0
3477528,29,168,95,0
3477538,31,174,84,0
3477548,29,177,76,0
3477558,32,177,80,0
3477568,28,162,80,0
3477578,28,203,73,0
3477588,30,189,98,0
3477598,27,181,96,0
3477608,29,169,86,0
3477618,27,204,83,0
3477629,28,204,153,0
3477639,30,221,191,0
3477649,32,181,199,0
3477659,32,223,238,0
3477669,28,170,186,0
3477679,29,178,141,0
3477689,31,171,120,0
3477699,35,147,95,0
3477709,31,163,85,0
3477719,26,167,84,0
3477729,25,124,76,0
3477739,22,143,73,0
3477749,23,152,69,0
3477759,28,165,76,0
3477769,25,218,86,0
3477779,31,208,118,0
3477789,37,172,94,0
3477799,37,153,125,0
3477809,42,177,119,0
3477819,40,144,121,0
3477830,42,132,101,0
3477840,37,127,109,0
3477850,43,155,92,0
3477860,46,144,102,0
3477870,57,158,100,0
3477880,50,167,85,0
3477890,49,163,74,0
3477900,43,226,77,0
3477910,51,191,85,0
3477920,48,190,95,0
3477930,48,190,87,0
3477940,54,208,87,0
3477950,64,208,83,0
3477960,58,182,77,0
3477970,65,184,107,0
3477980,70,162,121,0
3477990,83,168,98,0
3478000,90,227,94,0
3478010,82,199,86,0
3478020,91,192,83,0
3478030,84,161,80,0
3478041,74,159,79,0
3478051,73,150,73,0
3478061,77,173,69,0
3478071,86,151,68,0
3478081,72,191,82,0
3478091,69,207,88,0
3478101,64,167,94,0
3478111,84,208,90,0
3478121,91,168,85,0
3478131,87,164,69,0
3478141,76,182,63,0
3478151,95,184,64,0
3478161,109,190,77,0
3478171,114,204,79,0
3478181,121,164,118,0
3478191,100,129,133,0
3478201,97,156,116,0
3478211,130,167,103,0
3478221,120,165,84,0
3478231,141,262,77,0
3478242,134,233,129,0
3478252,101,222,139,0
3478262,93,181,189,0
3478272,121,197,200,0
3478282,115,191,153,0
3478292,109,199,133,0
3478302,128,208,107,0
3478312,127,164,102,0
3478322,113,204,100,0
3478332,113,167,125,0
3478342,103,196,114,0
3478352,90,227,92,0
3478362,92,202,78,0
3478372,102,217,92,0
3478382,146,230,86,0
3478392,116,176,101,0
3478402,116,238,94,0
3478412,134,213,87,0
3478422,148,260,77,0
3478432,147,250,73,0
3478442,110,185,74,0
3478453,116,180,90,0
3478463,96,145,83,0
3478473,95,145,79,0
3478483,80,188,73,0
3478493,69,239,80,0
3478503,53,202,89,0
3478513,51,235,86,0
3478523,48,202,88,0
3478533,48,214,89,0
3478543,44,207,93,0
3478553,38,248,80,0
3478563,44,234,80,0
3478573,35,196,85,0
3478583,28,160,82,0
3478593,35,158,84,0
3478603,36,141,77,0
3478613,33,159,98,0
3478623,43,176,85,0
3478633,48,167,91,0
3478643,42,185,85,0
3478654,40,171,108,0
3478664,34,177,96,0
3478674,28,164,89,0
3478684,23,159,89,0
3478694,28,206,117,0
3478704,31,244,106,0
3478714,32,196,116,0
3478724,28,194,125,0
3478734,24,167,104,602
3478744,21,160,94,0
3478754,20,126,85,0
3478764,22,145,85,0
3478774,19,159,85,0
3478784,20,293,86,0
3478794,20,232,86,0
3478804,18,222,95,0
3478814,24,189,78,0
3478824,25,164,106,0
3478834,26,172,144,0
3478844,29,198,136,0
3478854,38,208,174,0
3478865,33,205,183,0
3478875,28,217,154,0
3478885,22,194,133,0
3478895,20,177,104,0
3478905,19,168,95,0
3478915,18,155,100,0
3478925,17,122,108,0
3478935,16,99,95,0
3478945,17,121,89,0
3478955,17,132,84,0
3478965,18,155,76,0
3478975,18,151,69,0
3478985,17,186,74,0
3478995,18,158,80,0
3479005,18,170,95,0
3479015,18,193,99,0
3479025,17,186,86,0
3479035,17,184,90,0
3479045,14,198,83,0
3479055,19,183,95,0
3479065,18,180,75,0
3479076,18,140,99,0
3479086,17,117,93,0
3479096,19,144,97,0
3479106,18,127,90,0
3479116,19,114,87,0
3479126,19,142,85,0
3479136,18,135,82,0
3479146,14,121,79,0
3479156,14,146,75,0
3479166,14,165,60,0
3479176,14,152,73,0
3479186,16,181,75,0
3479196,14,166,73,0
3479206,18,170,68,0
3479216,18,180,75,0
3479226,19,178,64,0
3479236,21,146,72,0
3479246,17,114,71,0
3479256,18,125,79,0
3479266,16,110,76,0
3479277,14,107,86,0
3479287,15,137,79,0
3479297,15,127,71,0
3479307,17,106,70,0
3479317,17,135,56,0
3479327,20,131,66,0
3479337,21,149,63,0
3479347,17,129,55,0
3479357,16,125,58,0
3479367,17,126,67,0
3479377,17,115,63,0
3479387,19,87,58,0
3479397,26,94,59,0
3479407,29,82,52,0
3479417,36,108,64,0
3479427,32,101,144,0
3479437,26,100,128,0
3479447,25,102,172,0
3479457,22,162,155,0
3479467,19,121,131,0
3479477,17,118,102,0
3479488,18,126,87,0
3479498,23,146,79,0
3479508,20,184,80,0
3479518,19,146,71,0
3479528,18,122,70,0
3479538,16,97,64,0
3479548,16,80,58,0
3479558,16,126,56,0
3479568,15,132,57,0
3479578,15,126,64,0
3479588,14,103,67,0
3479598,17,100,67,0
3479608,19,88,70,0
3479618,19,71,69,0
3479628,17,69,57,0
3479638,17,66,61,0
3479648,18,57,54,0
3479658,19,53,54,0
3479668,15,55,52,0
3479678,17,59,52,0
3479688,18,66,61,0
3479699,19,66,64,0
3479709,18,57,63,0
3479719,17,54,56,0
3479729,16,52,52,0
3479739,14,45,52,0
3479749,13,50,55,0
3479759,15,55,56,0
3479769,15,54,51,0
3479779,15,49,51,0
3479789,18,51,59,0
3479799,17,42,55,0
3479809,16,43,51,0
3479819,15,42,46,0
3479829,15,41,45,0
3479839,15,41,44,0
3479849,19,37,47,0
3479859,19,35,44,0
3479869,18,42,55,0
3479879,17,48,54,0
3479889,16,39,52,0
3479899,16,34,53,0
3479910,17,44,61,0
3479920,18,46,64,0
3479930,19,51,62,0
3479940,18,51,62,0
3479950,20,41,57,0
3479960,16,45,51,0
3479970,16,42,53,0
3479980,17,48,51,0
3479990,18,56,54,0
3480000,20,48,57,0
3480010,19,39,56,0
3480020,34,69,73,0
3480030,31,104,130,0
3480040,29,92,137,0
3480050,24,114,142,0
3480060,22,125,145,0
3480070,19,104,123,0
3480080,16,82,98,0
3480090,17,64,89,0
3480100,16,56,74,0
3480111,18,52,63,0
3480121,18,50,62,0
3480131,17,47,55,0
3480141,15,47,58,0
3480151,15,55,53,0
3480161,14,53,57,0
3480171,17,44,67,0
3480181,18,47,62,0
3480191,18,40,56,0
3480201,17,38,51,0
3480211,17,31,47,0
3480221,17,35,50,0
3480231,18,39,49,0
3480241,17,33,60,0
3480251,15,37,62,0
3480261,14,33,60,0
3480271,12,40,61,0
3480281,15,49,64,0
3480291,16,53,59,0
3480301,17,48,58,0
3480311,17,46,59,0
3480322,14,61,61,0
3480332,17,60,57,0
3480342,17,53,53,0
3480352,18,48,55,0
3480362,18,46,55,0
3480372,16,44,53,0
3480382,17,48,57,0
3480392,21,63,62,0
3480402,20,49,57,0
3480412,17,49,53,0
3480422,15,60,50,0
3480432,15,60,53,0
3480442,16,48,54,0
3480452,18,42,58,0
3480462,16,44,53,0
3480472,15,49,50,0
3480482,16,47,52,0
3480492,15,54,61,0
3480502,13,49,51,0
3480512,14,47,50,0
3480522,18,45,56,0
3480533,23,50,57,0
3480543,26,50,55,0
3480553,23,49,51,0
3480563,19,43,51,0
3480573,19,46,61,0
3480583,19,36,57,0
3480593,18,44,65,0
3480603,17,50,59,0
3480613,16,50,64,0
3480623,22,51,66,0
3480633,24,50,66,0
3480643,39,67,82,0
3480653,36,70,155,0
3480663,31,73,142,0
3480673,24,84,164,0
3480683,20,78,138,0
3480693,20,69,111,0
3480703,19,55,91,0
3480713,18,47,71,0
3480723,17,45,66,0
3480734,14,55,64,0
3480744,17,52,59,1001
3480754,16,51,55,0
3480764,16,50,48,0
3480774,15,47,58,0
3480784,18,46,64,0
3480794,17,41,61,0
3480804,17,44,62,0
3480814,16,48,58,0
3480824,14,49,58,0
3480834,16,50,61,0
3480844,17,42,62,0
3480854,15,44,74,0
3480864,15,39,76,0
3480874,14,43,78,0
3480884,14,41,71,0
3480894,14,40,61,0
3480904,15,52,61,0
3480914,15,55,58,0
3480924,14,45,54,0
3480934,18,43,51,0
3480945,17,43,47,0
3480955,16,42,49,0
3480965,17,41,47,0
3480975,17,36,51,0
3480985,15,37,58,0
3480995,13,32,53,0
3481005,16,32,48,0
3481015,13,41,51,0
3481025,16,43,52,0
3481035,15,44,55,0
3481045,12,41,48,0
3481055,12,46,49,0
3481065,15,42,52,0
3481075,17,44,59,0
3481085,15,45,54,0
3481095,17,43,55,0
3481105,16,48,56,0
3481115,17,42,64,0
3481125,18,43,59,0
3481135,21,42,55,0
3481145,20,41,49,0
3481156,24,43,64,0
3481166,24,45,73,0
3481176,20,43,70,0
3481186,17,45,68,0
3481196,18,43,55,0
3481206,20,42,54,0
3481216,18,50,60,0
3481226,20,48,56,0
3481236,22,44,52,0
3481246,28,46,54,0
3481256,25,77,123,0
3481266,28,77,147,0
3481276,24,79,145,0
3481286,21,100,170,0
3481296,20,105,140,0
3481306,20,84,108,0
3481316,19,66,90,0
3481326,18,52,78,0
3481336,18,48,62,0
3481346,16,48,52,0
3481357,16,55,56,0
3481367,16,49,48,0
3481377,17,43,58,0
3481387,16,42,57,0
3481397,15,43,54,0
3481407,15,41,57,0
3481417,17,42,53,0
3481427,19,41,60,0
3481437,19,43,59,0
3481447,17,43,56,0
3481457,19,42,54,0
3481467,16,48,56,0
3481477,18,50,57,0
3481487,17,43,57,0
3481497,15,43,62,0
3481507,15,43,61,0
3481517,14,46,61,0
3481527,15,43,61,0
3481537,16,46,59,0
3481547,15,46,65,0
3481557,15,52,58,0
3481568,15,45,54,0
3481578,15,42,52,0
3481588,15,41,52,0
3481598,15,44,50,0
3481608,17,57,64,0
3481618,19,53,63,0
3481628,18,54,62,0
3481638,19,55,59,0
3481648,16,46,53,0
3481658,17,40,56,0
3481668,17,41,51,0
3481678,18,35,55,0
3481688,19,34,59,0
3481698,18,35,60,0
3481708,21,43,61,0
3481718,20,42,55,0
3481728,18,41,58,0
3481738,22,40,66,0
3481748,26,54,70,0
3481758,25,60,75,0
3481768,22,50,70,0
3481779,21,48,64,0
3481789,19,43,62,0
3481799,17,48,56,0
3481809,17,47,60,0
3481819,18,41,62,0
3481829,21,42,58,0
3481839,31,59,65,0
3481849,30,81,127,0
3481859,29,74,125,1000
3481869,24,85,150,0
3481879,22,76,158,600
3481889,19,62,122,0
3481899,18,59,98,0
3481909,18,55,78,0
3481919,20,52,73,0
3481929,20,47,66,0
3481939,17,53,66,0
3481949,17,59,65,0
3481959,15,51,71,0
3481969,14,46,66,0
3481979,15,44,60,0
3481990,15,51,57,0
3482000,17,45,54,0
3482010,15,41,52,0
3482020,14,45,48,0
3482030,15,43,52,0
3482040,15,43,59,0
3482050,16,39,58,0
3482060,16,36,64,0
3482070,14,36,58,0
3482080,15,36,62,0
3482090,15,43,58,0
3482100,16,41,57,0
3482110,16,43,53,0
3482120,15,43,52,0
3482130,17,42,48,0
3482140,13,44,58,0
3482150,13,40,57,0
3482160,18,47,49,0
3482170,17,49,49,0
3482180,17,43,50,0
3482191,14,39,57,0
3482201,15,40,55,0
3482211,15,40,54,0
3482221,16,41,57,0
3482231,17,46,55,0
3482241,18,46,66,0
3482251,14,47,55,0
3482261,18,47,61,0
3482271,17,46,62,0
3482281,16,49,51,0
3482291,16,44,50,0
3482301,16,46,53,0
3482311,13,42,52,0
3482321,14,49,50,0
3482331,16,46,46,0
3482341,18,49,53,0
3482351,17,40,54,0
3482361,21,39,58,0
3482371,23,49,59,0
3482381,24,56,55,0
3482391,23,57,60,0
3482402,21,50,61,0
3482412,21,47,53,0
3482422,20,47,51,0
3482432,18,54,53,0
3482442,18,50,54,0
3482452,20,45,60,0
3482462,22,45,61,0
3482472,31,79,69,0
3482482,27,86,146,0
3482492,25,83,140,0
3482502,22,121,183,0
3482512,20,123,169,0
3482522,19,92,131,0
3482532,17,70,95,0
3482542,23,59,77,0
3482552,21,50,71,0
3482562,16,44,66,0
3482572,16,42,67,0
3482582,15,43,59,0
3482592,14,47,57,0
3482602,15,44,60,0
3482613,17,43,53,0
3482623,16,40,51,0
3482633,14,46,50,0
3482643,15,49,59,0
3482653,16,41,60,0
3482663,19,42,53,0
3482673,14,37,59,0
3482683,15,37,50,0
3482693,14,39,52,0
3482703,13,37,52,0
3482713,12,41,54,0
3482723,15,45,52,0
3482733,14,40,61,0
3482743,15,45,61,0
3482753,18,45,60,0
3482763,20,43,69,0
3482773,17,47,66,0
3482783,15,49,66,0
3482793,17,42,60,0
3482803,20,45,69,0
3482813,17,46,68,0
3482824,16,41,60,0
3482834,17,69,60,0
3482844,18,71,61,0
3482854,18,77,58,0
3482864,15,59,60,0
3482874,15,48,62,0
3482884,16,43,60,0
3482894,13,41,57,0
3482904,14,38,54,0
3482914,15,42,58,0
3482924,15,57,65,0
3482934,19,57,57,0
3482944,19,49,52,0
3482954,17,51,52,0
3482964,18,60,55,0
3482974,17,60,56,0
3482984,18,74,67,0
3482994,17,65,61,0
3483004,18,62,60,0
3483014,19,54,54,0
3483025,17,54,52,0
3483035,19,58,64,0
3483045,19,55,63,0
3483055,17,44,60,0
3483065,15,40,52,0
3483075,18,44,56,0
3483085,22,56,56,0
3483095,22,66,58,0
3483105,22,65,51,0
3483115,19,53,62,0
3483125,18,54,58,0
3483135,16,53,52,0
3483145,17,51,54,0
3483155,17,47,71,0
3483165,19,47,67,0
3483175,23,69,73,0
3483185,32,93,84,0
3483195,30,97,143,0
3483205,25,99,120,0
3483215,22,125,169,0
3483225,21,119,161,0
3483236,20,95,132,0
3483246,18,76,103,0
3483256,17,73,84,0
3483266,13,65,70,0
3483276,18,60,63,0
3483286,17,61,66,0
3483296,15,59,58,0
3483306,15,65,53,0
3483316,15,58,48,0
3483326,17,57,58,0
3483336,14,55,64,0
3483346,15,45,59,0
3483356,15,55,58,0
3483366,14,68,57,0
3483376,12,76,58,601
3483386,15,69,53,0
3483396,17,81,55,0
3483406,18,85,54,0
3483416,18,66,50,0
3483426,19,58,60,0
3483436,17,54,51,0
3483447,16,50,47,0
3483457,18,56,49,0
3483467,15,72,56,0
3483477,15,108,59,0
3483487,14,179,65,0
3483497,18,136,74,0
3483507,16,108,68,0
3483517,16,99,62,0
3483527,16,77,57,0
3483537,18,69,55,0
3483547,13,68,60,0
3483557,13,176,80,0
3483567,16,235,74,0
3483577,16,293,70,0
3483587,16,305,62,0
3483597,13,241,72,0
3483607,15,218,78,0
3483617,15,164,78,0
3483627,17,126,90,0
3483637,13,104,95,0
3483648,15,102,93,0
3483658,16,83,81,0
3483668,18,86,74,0
3483678,15,65,87,0
3483688,15,57,75,0
3483698,14,70,76,0
3483708,16,98,72,0
3483718,16,107,76,0
3483728,13,100,85,0
3483738,16,81,110,0
3483748,16,95,102,0
3483758,17,121,146,0
3483768,19,106,142,0
3483778,20,123,135,0
3483788,19,131,130,0
3483798,20,98,126,0
3483808,18,113,106,0
3483818,15,92,85,0
3483828,17,93,79,0
3483838,19,88,67,0
3483848,19,103,76,0
3483859,17,131,75,0
3483869,17,98,86,0
3483879,22,105,79,0
3483889,19,98,68,0
3483899,19,101,72,0
3483909,23,95,77,0
3483919,26,81,66,0
3483929,29,89,92,0
3483939,30,119,141,0
3483949,24,128,124,0
3483959,23,116,147,0
3483969,24,117,140,0
3483979,22,113,114,0
3483989,20,121,104,0
3483999,18,105,89,0
3484009,17,131,103,0
3484019,17,123,100,0
3484029,20,132,100,0
3484039,20,133,86,0
3484049,17,127,96,0
3484059,17,133,84,0
3484070,18,140,102,0
3484080,16,157,98,0
3484090,17,126,107,0
3484100,17,141,80,0
3484110,15,119,75,0
3484120,17,113,66,0
3484130,22,121,72,0
3484140,20,157,77,0
3484150,19,139,102,0
3484160,15,158,89,0
3484170,17,145,80,0
3484180,16,136,90,0
3484190,19,107,79,0
3484200,20,134,70,0
3484210,19,119,68,0
3484220,15,134,71,0
3484230,20,163,86,0
3484240,20,171,82,0
3484250,20,163,83,0
3484260,17,138,84,0
3484270,19,112,76,0
3484281,17,138,71,0
3484291,21,128,74,0
3484301,20,125,70,0
3484311,22,99,72,0
3484321,22,109,74,0
3484331,18,114,94,0
3484341,16,123,88,0
3484351,21,118,106,0
3484361,22,133,95,0
3484371,25,149,99,0
3484381,20,136,94,0
3484391,20,122,106,0
3484401,24,121,114,0
3484411,26,119,91,0
3484421,27,133,80,0
3484431,23,142,89,0
3484441,23,141,91,0
3484451,21,158,85,0
3484461,21,204,80,0
3484471,19,203,81,0
3484482,24,162,80,0
3484492,20,145,92,0
3484502,22,164,89,0
3484512,22,164,89,0
3484522,19,138,85,0
3484532,23,118,80,0
3484542,22,103,78,0
3484552,21,133,77,0
3484562,22,118,75,0
3484572,19,158,74,0
3484582,19,175,83,0
3484592,22,163,78,0
3484602,21,138,76,0
3484612,26,150,90,0
3484622,26,140,87,0
3484632,26,126,156,0
3484642,26,206,182,0
3484652,26,166,159,0
3484662,26,214,185,0
3484672,24,229,174,0
3484682,24,197,128,0
3484693,21,200,114,0
3484703,21,170,94,0
3484713,19,148,83,0
3484723,21,141,76,0
3484733,19,118,82,0
3484743,24,124,76,0
3484753,25,119,72,0
3484763,27,122,71,0
3484773,27,135,81,0
3484783,27,129,91,0
3484793,26,115,87,0
3484803,25,130,67,0
3484813,22,112,71,0
3484823,25,93,69,0
3484833,24,86,82,0
3484843,29,112,81,0
3484853,24,127,88,0
3484863,25,100,114,0
3484873,21,120,110,0
3484883,25,133,112,0
3484893,30,168,106,0
3484904,25,162,95,0
3484914,23,129,75,0
3484924,25,107,72,0
3484934,25,137,74,0
3484944,23,134,72,0
3484954,20,137,81,0
3484964,23,163,79,0
3484974,22,158,82,0
3484984,24,200,76,0
3484994,23,186,73,0
3485004,21,160,71,0
3485014,26,167,75,0
3485024,22,155,72,0
3485034,21,168,69,0
3485044,25,164,81,0
3485054,22,153,110,0
3485064,20,139,94,0
3485074,23,188,91,0
3485084,21,188,97,0
3485094,25,203,94,0
3485105,38,234,102,0
3485115,32,230,98,0
3485125,29,187,112,0
3485135,24,188,87,0
3485145,22,153,89,0
3485155,24,166,78,0
3485165,25,181,64,0
3485175,23,217,69,0
3485185,23,216,94,0
3485195,24,181,94,0
3485205,19,166,96,0
3485215,26,167,103,0
3485225,30,161,84,0
3485235,27,126,78,0
3485245,22,123,65,0
3485255,19,138,76,0
3485265,30,145,88,0
3485275,34,163,94,0
3485285,35,160,139,0
3485295,31,170,168,0
3485305,30,196,184,0
3485316,27,197,185,0
3485326,26,162,157,0
3485336,26,156,130,0
3485346,23,172,118,0
3485356,23,178,125,0
3485366,22,167,103,0
3485376,22,178,103,0
3485386,24,145,108,0
3485396,27,160,96,0
3485406,23,152,106,0
3485416,22,161,97,0
3485426,21,208,98,0
3485436,21,193,103,0
3485446,19,173,87,0
3485456,15,174,87,0
3485466,16,167,75,0
3485476,18,138,93,0
3485486,18,144,99,0
3485496,23,248,101,0
3485506,21,250,92,0
3485517,18,219,77,0
3485527,18,194,76,0
3485537,20,206,74,0
3485547,22,163,63,0
3485557,24,140,75,0
3485567,19,164,79,0
3485577,21,144,77,0
3485587,23,153,68,0
3485597,26,162,72,0
3485607,21,162,86,0
3485617,21,183,77,0
3485627,27,171,89,0
3485637,26,255,68,0
3485647,26,238,71,0
3485657,27,215,77,0
3485667,21,199,71,0
3485677,25,213,105,0
3485687,24,232,85,0
3485697,27,262,71,0
3485707,19,221,63,0
3485717,16,200,75,0
3485728,18,208,72,0
3485738,18,238,73,0
3485748,18,205,69,0
3485758,17,189,67,0
3485768,19,165,92,0
3485778,20,195,98,0
3485788,27,180,94,0
3485798,29,183,79,0
3485808,28,155,76,0
3485818,24,135,103,0
3485828,28,133,119,0
3485838,28,146,100,0
3485848,26,180,95,0
3485858,35,197,102,0
3485868,38,196,100,0
3485878,35,189,126,0
3485888,33,184,109,0
3485898,36,185,93,0
3485908,31,205,105,0
3485918,36,178,178,0
3485928,38,226,181,0
3485939,43,222,242,0
3485949,36,191,198,0
3485959,30,178,152,0
3485969,23,184,124,0
3485979,24,225,102,0
3485989,24,198,90,0
3485999,26,244,101,0
3486009,26,261,102,0
3486019,30,216,103,0
3486029,24,197,99,0
3486039,27,190,87,0
3486049,29,206,91,0
3486059,28,173,93,0
3486069,41,153,99,0
3486079,48,130,89,0
3486089,45,172,84,0
3486099,39,213,94,0
3486109,38,212,128,0
3486119,31,202,104,0
3486129,28,203,92,0
3486140,27,175,85,0
3486150,27,181,80,0
3486160,29,211,71,0
3486170,32,200,85,0
3486180,33,190,82,0
3486190,46,169,72,0
3486200,59,133,65,0
3486210,54,170,96,0
3486220,44,199,89,0
3486230,42,179,94,0
3486240,43,204,87,0
3486250,62,186,93,0
3486260,45,171,90,0
3486270,36,197,99,0
3486280,59,269,93,0
3486290,66,302,89,0
3486300,67,227,81,0
3486310,74,235,81,0
3486320,79,195,80,0
3486330,61,254,81,0
3486340,64,252,80,0
3486351,60,253,89,0
3486361,57,218,86,0
3486371,76,254,84,0
3486381,81,277,75,602
3486391,70,231,72,0
3486401,61,235,65,0
3486411,48,265,68,0
3486421,39,292,63,0
3486431,37,346,57,0
3486441,42,280,66,0
3486451,38,295,66,0
3486461,32,216,73,0
3486471,31,190,73,0
3486481,25,200,68,0
3486491,22,192,76,0
3486501,21,164,71,0
3486511,25,186,73,0
3486521,21,238,95,0
3486531,25,201,171,0
3486541,24,209,160,0
3486551,27,269,209,0
3486562,26,255,168,0
3486572,23,209,136,0
3486582,21,175,117,0
3486592,21,166,99,0
3486602,17,215,81,0
3486612,18,200,77,0
3486622,20,155,98,0
3486632,20,170,86,0
3486642,19,215,79,0
3486652,18,228,71,0
3486662,17,283,66,0
3486672,16,236,68,0
3486682,22,222,60,0
3486692,21,198,75,0
3486702,16,218,70,0
3486712,17,237,94,0
3486722,20,203,89,0
3486732,19,199,74,0
3486742,25,218,73,0
3486752,22,235,64,0
3486763,21,199,67,0
3486773,20,218,65,0
3486783,17,204,62,0
3486793,21,200,69,0
3486803,16,168,67,0
3486813,16,231,60,0
3486823,16,223,66,0
3486833,17,196,66,0
3486843,14,185,63,0
3486853,13,189,67,0
3486863,19,150,68,0
3486873,19,149,63,0
3486883,16,131,62,0
3486893,16,123,63,0
3486903,15,165,68,0
3486913,16,156,75,0
3486923,17,228,78,0
3486933,17,187,73,0
3486943,15,151,82,0
3486953,17,177,76,0
3486963,17,146,79,0
3486974,20,171,80,0
3486984,19,174,72,0
3486994,22,235,74,0
3487004,29,185,82,0
3487014,26,148,99,0
3487024,23,168,89,0
3487034,20,144,78,0
3487044,20,125,66,0
3487054,20,104,59,0
3487064,20,138,66,0
3487074,15,134,78,0
3487084,20,126,75,0
3487094,27,134,74,0
3487104,29,120,91,0
3487114,29,108,149,0
3487124,24,119,126,0
3487134,27,129,159,0
3487144,22,133,151,0
3487154,19,163,129,0
3487164,22,163,103,0
3487175,18,121,83,0
3487185,18,123,71,0
3487195,17,130,72,0
3487205,15,117,74,0
3487215,18,105,68,0
3487225,15,95,67,0
3487235,16,98,59,0
3487245,14,83,58,0
3487255,16,80,65,0
3487265,18,93,72,0
3487275,16,77,74,0
3487285,17,79,66,0
3487295,13,115,73,0
3487305,16,117,73,0
3487315,19,184,63,0
3487325,18,149,62,0
3487335,16,173,73,0
3487345,19,145,79,0
3487355,18,109,101,0
3487365,15,100,77,0
3487375,17,90,66,0
3487386,17,90,55,0
3487396,18,95,61,0
3487406,18,76,68,0
3487416,18,69,63,0
3487426,14,68,64,0
3487436,14,68,63,0
3487446,17,86,64,0
3487456,15,74,65,0
3487466,12,61,61,0
3487476,17,51,65,0
3487486,18,54,58,0
3487496,17,52,56,0
3487506,16,65,59,0
3487516,14,60,57,0
3487526,16,71,62,0
3487536,16,79,63,0
3487546,20,65,61,0
3487556,21,62,55,0
3487566,20,58,51,0
3487576,23,61,69,0
3487586,25,59,82,0
3487597,22,59,75,0
3487607,21,63,73,0
3487617,17,54,76,0
3487627,19,50,70,0
3487637,14,58,59,0
3487647,16,47,66,0
3487657,21,50,66,0
3487667,23,44,63,0
3487677,29,51,107,0
3487687,31,53,131,0
3487697,29,65,139,0
3487707,24,71,157,0
3487717,21,74,132,0
3487727,21,61,109,0
3487737,22,60,88,0
3487747,19,48,79,0
3487757,16,40,67,0
3487767,18,44,62,0
3487777,12,42,58,0
3487787,12,40,56,0
3487797,15,36,47,0
3487808,17,42,51,0
3487818,21,41,67,0
3487828,16,41,81,0
3487838,15,45,83,0
3487848,15,44,83,0
3487858,17,39,94,0
3487868,18,44,74,0
3487878,18,40,68,0
3487888,18,47,60,0
3487898,19,39,64,0
3487908,16,39,55,0
3487918,16,53,63,0
3487928,14,49,64,0
3487938,16,54,57,0
3487948,17,49,56,0
3487958,15,44,69,0
3487968,13,51,61,0
3487978,14,50,63,0
3487988,15,51,54,0
3487998,16,50,62,0
3488009,16,43,61,0
3488019,15,41,58,0
3488029,14,39,57,0
3488039,18,35,61,0
3488049,15,39,56,0
3488059,16,43,54,0
3488069,15,43,52,0
3488079,13,45,59,0
3488089,13,43,62,0
3488099,15,45,64,0
3488109,18,51,72,0
3488119,20,44,63,0
3488129,18,51,77,0
3488139,24,51,83,0
3488149,28,48,93,0
3488159,24,67,80,0
3488169,21,54,70,0
3488179,20,57,64,0
3488189,20,49,62,0
3488199,15,44,59,1001
3488209,17,44,61,0
3488220,22,55,57,0
3488230,28,59,53,0
3488240,34,80,72,0
3488250,36,81,123,0
3488260,27,89,127,0
3488270,25,104,154,0
3488280,21,89,124,0
3488290,19,70,104,0
3488300,18,54,83,0
3488310,15,48,74,0
3488320,14,44,66,0
3488330,16,45,64,0
3488340,15,48,76,0
3488350,16,48,67,0
3488360,17,43,64,0
3488370,13,43,55,0
3488380,15,46,54,0
3488390,18,43,46,0
3488400,14,46,48,0
3488410,13,46,50,0
3488420,17,50,54,0
3488431,17,48,63,0
3488441,15,46,56,0
3488451,16,41,51,0
3488461,17,39,54,0
3488471,17,35,51,0
3488481,14,32,60,0
3488491,15,32,59,0
3488501,15,34,48,0
3488511,13,40,55,0
3488521,14,40,57,0
3488531,14,43,60,0
3488541,16,48,54,0
3488551,18,47,53,0
3488561,15,51,44,0
3488571,15,51,53,0
3488581,16,43,49,0
3488591,16,39,50,0
3488601,16,43,46,0
3488611,16,38,51,0
3488621,14,44,53,0
3488632,18,47,51,0
3488642,13,48,54,0
3488652,18,42,58,0
3488662,15,37,62,0
3488672,19,34,63,0
3488682,20,33,68,0
3488692,18,42,62,0
3488702,22,48,67,0
3488712,22,48,73,0
3488722,20,47,60,0
3488732,16,47,60,0
3488742,16,41,55,0
3488752,14,37,61,0
3488762,16,35,55,0
3488772,17,36,56,0
3488782,25,35,59,0
3488792,31,42,60,0
3488802,38,43,81,0
3488812,35,47,117,0
3488822,28,64,122,0
3488832,25,81,143,0
3488843,23,83,130,0
3488853,17,72,103,0
3488863,18,60,81,0
3488873,16,47,67,0
3488883,16,38,62,0
3488893,15,36,62,0
3488903,13,37,59,0
3488913,14,45,62,0
3488923,15,51,58,0
3488933,13,46,55,0
3488943,14,42,57,0
3488953,16,44,51,0
3488963,17,46,62,0
3488973,14,41,62,0
3488983,16,43,58,0
3488993,17,42,58,0
3489003,15,46,50,0
3489013,17,43,56,0
3489023,15,42,56,0
3489033,14,38,54,0
3489043,14,37,56,0
3489054,15,41,55,0
3489064,17,51,55,0
3489074,14,49,52,0
3489084,15,46,46,0
3489094,17,45,44,0
3489104,14,55,47,0
3489114,14,64,49,0
3489124,16,62,51,0
3489134,18,49,53,0
3489144,21,46,53,0
3489154,18,47,52,0
3489164,17,42,58,0
3489174,18,46,58,0
3489184,16,47,58,0
3489194,16,51,57,0
3489204,16,44,52,0
3489214,17,44,57,0
3489224,15,41,61,0
3489234,16,33,60,0
3489244,16,40,60,0
3489254,19,41,59,0
3489265,16,40,54,0
3489275,17,44,54,0
3489285,19,44,60,0
3489295,16,40,62,0
3489305,18,48,57,0
3489315,22,40,58,0
3489325,18,37,69,0
3489335,14,42,67,0
3489345,16,54,62,0
3489355,23,47,75,0
3489365,28,45,71,0
3489375,44,57,101,0
3489385,39,70,149,0
3489395,35,75,128,0
3489405,28,84,145,0
3489415,25,68,126,0
3489425,22,59,111,0
3489435,21,55,86,0
3489445,20,55,66,0
3489455,19,49,68,0
3489466,16,50,59,0
3489476,16,46,62,0
3489486,16,46,61,0
3489496,15,53,65,0
3489506,17,54,61,0
3489516,15,51,59,0
3489526,16,43,54,0
3489536,18,43,51,0
3489546,17,42,56,0
3489556,18,44,54,0
3489566,18,42,50,0
3489576,16,38,59,0
3489586,13,33,61,0
3489596,15,33,63,0
3489606,15,33,64,0
3489616,15,42,54,0
3489626,15,44,57,0
3489636,15,41,59,0
3489646,15,35,62,0
3489656,16,35,56,0
3489666,13,40,56,0
3489677,15,42,64,0
3489687,12,44,57,0
3489697,13,46,54,0
3489707,15,36,59,0
3489717,13,38,57,0
3489727,15,33,56,0
3489737,17,37,55,0
3489747,17,32,56,0
3489757,15,32,51,0
3489767,14,39,50,0
3489777,17,38,49,0
3489787,15,44,43,0
3489797,19,45,50,0
3489807,20,52,55,0
3489817,18,48,57,0
3489827,19,43,56,0
3489837,21,38,61,0
3489847,19,50,64,0
3489857,22,62,63,0
3489867,21,56,53,0
3489877,21,52,51,0
3489888,18,49,53,0
3489898,19,46,54,0
3489908,19,44,56,0
3489918,18,47,58,0
3489928,22,46,74,0
3489938,23,48,67,0
3489948,33,56,60,0
3489958,36,88,108,0
3489968,35,84,144,0
3489978,30,101,134,0
3489988,23,113,161,0
3489998,21,93,134,0
3490008,19,72,103,0
3490018,18,68,87,0
3490028,18,59,78,0
3490038,18,55,69,0
3490048,18,53,63,0
3490058,16,51,66,0
3490068,18,49,61,0
3490078,18,47,60,0
3490089,17,53,56,0
3490099,17,45,64,0
3490109,18,51,56,600
3490119,17,42,57,0
3490129,14,42,59,0
3490139,14,46,59,0
3490149,16,47,55,0
3490159,13,39,55,0
3490169,16,40,52,0
3490179,16,39,52,0
3490189,16,39,49,0
3490199,17,39,53,0
3490209,17,44,64,0
3490219,17,41,61,0
3490229,16,36,57,0
3490239,17,38,52,0
3490249,16,41,48,0
3490259,16,41,52,0
3490269,14,45,54,0
3490279,16,40,53,0
3490289,17,40,56,0
3490300,19,46,54,0
3490310,20,40,53,0
3490320,19,38,54,0
3490330,18,41,58,0
3490340,17,39,63,0
3490350,18,38,59,0
3490360,16,38,48,0
3490370,16,37,51,0
3490380,17,40,57,0
3490390,19,39,54,0
3490400,19,39,55,0
3490410,20,45,59,0
3490420,24,54,69,0
3490430,24,47,77,0
3490440,22,46,73,0
3490450,18,48,67,0
3490460,18,46,63,0
3490470,17,52,60,0
3490480,17,48,62,0
3490490,16,44,68,0
3490500,21,45,61,0
3490511,27,49,60,0
3490521,27,77,112,0
3490531,29,67,140,0
3490541,25,78,145,0
3490551,22,110,150,0
3490561,19,111,122,0
3490571,20,87,102,0
3490581,17,68,84,0
3490591,16,56,80,0
3490601,17,54,69,0
3490611,16,51,68,0
3490621,15,46,65,0
3490631,17,39,62,0
3490641,17,37,60,0
3490651,18,35,55,0
3490661,18,33,56,0
3490671,16,38,53,0
3490681,16,36,54,0
3490691,16,37,52,0
3490701,15,43,48,0
3490711,16,54,52,0
3490722,16,51,51,0
3490732,20,48,60,0
3490742,19,41,52,0
3490752,18,40,49,0
3490762,17,31,55,0
3490772,15,39,54,0
3490782,17,51,56,0
3490792,19,43,51,0
3490802,15,37,51,0
3490812,18,38,57,0
3490822,16,40,59,0
3490832,14,39,63,0
3490842,13,35,59,0
3490852,14,41,58,0
3490862,13,58,57,0
3490872,15,46,64,0
3490882,16,47,57,0
3490892,15,46,56,0
3490902,13,45,57,0
3490912,13,41,52,0
3490923,15,45,51,0
3490933,16,41,53,0
3490943,16,41,61,0
3490953,13,48,62,0
3490963,15,45,63,0
3490973,19,43,57,0
3490983,18,45,62,0
3490993,21,49,63,0
3491003,25,48,78,0
3491013,27,45,73,0
3491023,25,47,78,0
3491033,22,47,70,0
3491043,17,41,63,0
3491053,17,36,53,0
3491063,16,36,54,0
3491073,20,41,62,0
3491083,22,37,63,0
3491093,35,63,75,0
3491103,31,68,146,0
3491113,29,75,124,0
3491123,25,110,151,0
3491134,23,121,143,0
3491144,19,105,120,0
3491154,20,82,95,0
3491164,18,70,77,0
3491174,18,65,71,0
3491184,17,53,64,0
3491194,15,46,64,0
3491204,13,50,63,0
3491214,13,42,67,0
3491224,12,39,63,0
3491234,15,45,58,0
3491244,12,43,57,0
3491254,15,44,51,0
3491264,14,55,51,0
3491274,14,61,48,0
3491284,13,58,57,0
3491294,15,51,52,0
3491304,17,43,49,0
3491314,17,41,49,0
3491324,18,42,52,0
3491335,21,42,47,0
3491345,17,47,61,0
3491355,17,44,55,0
3491365,16,41,61,0
3491375,18,42,57,0
3491385,14,45,53,0
3491395,16,48,53,0
3491405,15,52,51,0
3491415,15,48,50,0
3491425,15,52,53,0
3491435,13,54,48,0
3491445,14,62,51,0
3491455,12,64,60,0
3491465,17,62,59,0
3491475,14,60,59,0
3491485,14,51,56,0
3491495,13,45,59,0
3491505,15,45,46,0
3491515,17,51,53,0
3491525,15,61,49,0
3491535,16,53,51,0
3491546,18,57,53,0
3491556,14,62,49,0
3491566,17,57,56,0
3491576,13,56,55,0
3491586,13,58,55,0
3491596,14,57,51,0
3491606,12,53,57,0
3491616,12,50,52,601
3491626,13,66,54,0
3491636,15,60,55,0
3491646,14,59,56,0
3491656,17,47,60,0
3491666,15,54,63,0
3491676,15,62,58,0
3491686,21,56,70,0
3491696,18,49,67,0
3491706,17,47,59,0
3491716,18,52,60,0
3491726,18,53,61,0
3491736,17,50,64,0
3491746,17,40,63,0
3491757,22,40,78,0
3491767,27,39,66,0
3491777,29,50,63,0
3491787,32,82,116,0
3491797,32,88,165,0
3491807,27,113,157,0
3491817,23,141,188,0
3491827,24,115,162,0
3491837,19,90,118,0
3491847,19,76,99,0
3491857,19,77,78,0
3491867,19,66,68,0
3491877,16,82,61,0
3491887,16,94,58,0
3491897,15,102,59,0
3491907,17,88,59,0
3491917,18,69,53,0
3491927,17,66,49,0
3491937,16,73,53,0
3491947,19,68,65,0
3491958,18,90,58,0
3491968,18,89,60,0
3491978,18,91,61,0
3491988,14,105,55,0
3491998,16,96,61,0
3492008,16,127,63,0
3492018,17,131,62,0
3492028,13,120,54,0
3492038,16,89,50,0
3492048,17,71,52,0
3492058,16,77,55,0
3492068,13,74,61,0
3492078,18,69,60,0
3492088,17,51,69,0
3492098,17,55,81,0
3492108,18,47,106,0
3492118,20,73,88,0
3492128,25,71,93,0
3492138,23,91,83,0
3492148,21,111,83,0
3492158,19,120,89,0
3492169,19,123,94,0
3492179,17,109,103,0
3492189,17,95,89,0
3492199,22,85,82,0
3492209,18,110,74,0
3492219,17,102,84,0
3492229,19,109,73,0
3492239,14,117,70,0
3492249,17,137,82,0
3492259,17,109,107,0
3492269,19,95,111,0
3492279,20,95,102,0
3492289,18,96,96,0
3492299,18,90,85,0
3492309,15,109,88,0
3492319,15,95,90,0
3492329,17,113,77,0
3492339,14,115,68,0
3492349,15,103,72,0
3492359,18,93,81,0
3492369,16,111,76,0
3492380,17,121,76,0
3492390,19,97,78,0
3492400,18,94,76,0
3492410,16,105,85,0
3492420,18,98,109,0
3492430,20,137,138,0
3492440,15,146,180,0
3492450,17,146,178,0
3492460,21,130,169,0
3492470,19,127,155,0
3492480,18,138,167,0
3492490,15,127,136,0
3492500,21,110,115,0
3492510,26,115,106,0
3492520,24,115,118,0
3492530,38,130,119,0
3492540,37,173,193,0
3492550,37,138,193,0
3492560,33,143,223,0
3492570,25,167,208,0
3492581,23,125,178,0
3492591,19,107,147,0
3492601,18,101,135,0
3492611,16,106,103,0
3492621,14,112,96,0
3492631,16,94,100,0
3492641,18,104,94,0
3492651,18,89,121,0
3492661,17,104,115,0
3492671,17,114,101,0
3492681,18,90,125,0
3492691,20,119,113,0
3492701,18,116,105,0
3492711,15,119,93,0
3492721,17,115,85,0
3492731,15,104,88,0
3492741,16,108,143,0
3492751,16,108,169,0
3492761,17,125,146,0
3492771,23,123,136,0
3492781,24,136,122,0
3492792,19,105,161,0
3492802,17,119,165,0
3492812,23,127,143,0
3492822,21,116,127,0
3492832,25,137,179,0
3492842,23,143,171,0
3492852,20,139,153,0
3492862,18,139,162,0
3492872,18,126,224,0
3492882,21,125,220,0
3492892,24,109,215,0
3492902,26,121,184,0
3492912,30,160,162,0
3492922,31,137,139,0
3492932,31,168,175,0
3492942,26,164,180,0
3492952,29,140,190,0
3492962,24,119,197,0
3492972,20,125,153,0
3492982,19,128,136,0
3492993,22,164,125,0
3493003,22,156,128,0
3493013,22,148,160,0
3493023,21,134,162,0
3493033,21,156,155,0
3493043,18,140,175,0
3493053,18,129,173,0
3493063,22,163,149,0
3493073,21,184,105,0
3493083,20,168,111,0
3493093,21,146,117,0
3493103,21,133,111,0
3493113,21,119,114,0
3493123,23,111,146,0
3493133,23,131,139,0
3493143,21,143,117,0
3493153,17,177,97,0
3493163,16,152,129,0
3493173,18,160,136,0
3493183,17,136,122,0
3493193,18,143,158,0
3493204,24,156,175,0
3493214,19,169,153,0
3493224,24,194,139,0
3493234,27,177,126,0
3493244,29,135,106,0
3493254,28,147,183,0
3493264,29,167,205,0
3493274,24,161,159,0
3493284,25,159,189,0
3493294,27,156,166,0
3493304,25,163,149,0
3493314,27,184,162,0
3493324,29,190,141,0
3493334,26,172,142,0
3493344,22,149,142,0
3493354,19,117,115,0
3493364,17,219,106,0
3493374,14,260,113,0
3493384,13,211,94,0
3493394,17,183,95,0
3493405,16,173,111,0
3493415,17,227,95,0
3493425,20,228,107,0
3493435,18,209,146,0
3493445,22,210,144,0
3493455,26,194,133,0
3493465,22,158,184,0
3493475,22,170,176,0
3493485,26,170,154,0
3493495,20,149,157,0
3493505,21,141,130,0
3493515,21,183,154,0
3493525,19,201,157,0
3493535,23,223,132,0
3493545,20,178,104,0
3493555,18,147,121,0
3493565,18,144,114,0
3493575,24,127,108,0
3493585,31,145,103,0
3493595,27,153,102,0
3493605,25,164,105,0
3493616,26,155,91,0
3493626,24,144,103,0
3493636,22,134,96,0
3493646,21,175,94,0
3493656,26,185,74,0
3493666,24,190,84,0
3493676,25,204,90,0
3493686,27,181,122,0
3493696,27,174,113,0
3493706,27,213,102,0
3493716,27,209,106,0
3493726,26,181,95,0
3493736,23,150,111,0
3493746,21,176,107,0
3493756,19,162,100,0
3493766,24,137,104,0
3493776,31,142,111,0
3493786,33,126,132,0
3493796,27,138,127,0
3493806,25,126,103,0
3493817,31,175,90,0
3493827,35,173,105,0
3493837,51,178,109,0
3493847,45,180,97,0
3493857,37,177,113,0
3493867,34,170,98,0
3493877,33,200,124,0
3493887,29,186,105,0
3493897,28,228,116,0
3493907,36,198,124,0
3493917,42,217,110,0
3493927,34,264,114,0
3493937,33,220,181,0
3493947,24,208,156,0
3493957,28,213,192,0
3493967,37,214,216,0
3493977,34,180,164,0
3493987,50,177,135,0
3493997,56,174,109,0
3494007,65,154,113,0
3494017,48,156,98,0
3494028,38,130,95,0
3494038,33,119,83,0
3494048,37,137,81,0
3494058,59,189,90,0
3494068,72,190,83,0
3494078,79,214,86,0
3494088,67,179,76,0
3494098,60,139,83,0
3494108,52,135,98,0
3494118,50,140,123,0
3494128,45,135,130,0
3494138,37,156,124,0
3494148,45,158,123,0
3494158,45,156,118,0
3494168,38,136,97,0
3494178,35,134,83,0
3494188,35,174,82,0
3494198,31,185,83,0
3494208,34,199,79,0
3494218,36,160,72,0
3494229,36,163,87,0
3494239,33,157,103,0
3494249,26,242,100,0
3494259,25,226,107,0
3494269,29,258,98,0
3494279,29,236,76,0
3494289,29,247,73,0
3494299,29,201,64,0
3494309,36,204,57,0
3494319,42,200,62,0
3494329,35,206,61,0
3494339,31,180,63,0
3494349,30,181,84,0
3494359,24,158,80,0
3494369,24,145,77,0
3494379,20,141,79,0
3494389,20,136,80,0
3494399,28,124,75,0
3494409,28,139,81,0
3494419,20,207,80,0
3494429,17,190,77,0
3494440,22,185,83,0
3494450,18,270,84,0
3494460,25,287,95,0
3494470,21,220,108,0
3494480,21,204,91,0
3494490,19,269,88,0
3494500,18,236,75,0
3494510,19,206,78,0
3494520,18,208,85,0
3494530,17,176,101,0
3494540,21,177,98,0
3494550,21,148,95,0
3494560,27,112,99,0
3494570,24,126,198,0
3494580,21,152,191,0
3494590,23,190,256,0
3494600,23,195,204,602
3494610,22,195,145,0
3494620,18,187,114,0
3494630,17,159,100,0
3494641,13,179,89,0
3494651,13,187,85,0
3494661,14,163,76,0
3494671,13,170,65,0
3494681,15,150,63,0
3494691,17,164,64,0
3494701,19,151,64,0
3494711,18,203,69,0
3494721,16,183,68,0
3494731,16,156,79,0
3494741,19,205,86,0
3494751,16,197,76,0
3494761,13,219,61,0
3494771,13,198,53,0
3494781,15,204,58,0
3494791,16,226,51,0
3494801,18,190,59,0
3494811,18,266,60,0
3494821,15,194,54,0
3494831,17,200,53,0
3494841,15,194,55,0
3494852,13,170,52,0
3494862,15,162,68,0
3494872,12,152,69,0
3494882,14,163,75,0
3494892,18,191,67,0
3494902,19,143,74,0
3494912,17,128,64,0
3494922,17,142,59,0
3494932,13,106,72,0
3494942,18,94,58,0
3494952,17,94,76,0
3494962,17,92,84,0
3494972,16,83,64,0
3494982,16,98,61,0
3494992,17,83,58,0
3495002,19,70,60,0
3495012,18,68,55,0
3495022,16,57,55,0
3495032,20,71,63,0
3495042,22,68,65,0
3495053,19,63,61,0
3495063,21,59,59,0
3495073,20,50,72,0
3495083,23,54,74,0
3495093,15,75,69,0
3495103,17,88,65,0
3495113,24,86,84,0
3495123,21,77,80,0
3495133,22,77,70,0
3495143,21,79,76,0
3495153,18,80,67,0
3495163,15,79,63,0
3495173,14,73,62,0
3495183,22,68,57,0
3495193,26,57,62,0
3495203,30,76,107,0
3495213,35,108,160,0
3495223,29,116,158,0
3495233,28,150,199,0
3495243,21,161,170,0
3495253,20,132,123,0
3495264,17,107,101,0
3495274,17,85,79,0
3495284,17,108,76,0
3495294,14,145,67,0
3495304,14,151,67,0
3495314,12,179,59,0
3495324,14,164,55,0
3495334,16,135,56,0
3495344,14,140,57,0
3495354,13,169,53,0
3495364,15,192,53,0
3495374,15,177,57,0
3495384,16,180,60,0
3495394,16,174,58,0
3495404,17,168,57,0
3495414,17,167,62,0
3495424,17,167,63,0
3495434,15,180,63,0
3495444,15,174,61,0
3495454,18,189,60,0
3495465,17,153,54,0
3495475,18,192,60,0
3495485,17,169,64,0
3495495,15,178,59,0
3495505,16,193,57,0
3495515,17,167,59,0
3495525,16,169,62,0
3495535,12,133,57,0
3495545,14,121,67,0
3495555,12,171,58,0
3495565,14,185,60,0
3495575,17,194,62,0
3495585,19,147,56,0
3495595,19,110,51,0
3495605,19,93,55,0
3495615,24,91,55,0
3495625,24,107,58,0
3495635,20,105,58,0
3495645,22,151,54,0
3495655,22,231,54,0
3495665,20,264,62,0
3495676,21,226,62,0
3495686,25,189,71,0
3495696,25,145,68,0
3495706,31,106,72,0
3495716,36,128,71,0
3495726,32,198,73,0
3495736,29,207,70,0
3495746,31,157,73,0
3495756,30,138,63,0
3495766,35,118,66,0
3495776,27,114,65,0
3495786,22,94,67,0
3495796,26,75,66,0
3495806,22,81,68,0
3495816,26,92,62,0
3495826,35,98,55,0
3495836,45,124,93,0
3495846,41,122,147,0
3495856,34,126,129,0
3495866,28,155,157,0
3495877,26,159,149,0
3495887,24,133,119,0
3495897,19,114,93,0
3495907,20,110,81,0
3495917,25,114,77,0
3495927,24,136,84,0
3495937,23,196,84,0
3495947,23,152,77,0
3495957,21,118,66,0
3495967,22,114,65,0
3495977,22,173,65,0
3495987,27,182,67,0
3495997,29,175,61,0
3496007,32,146,70,0
3496017,29,131,68,0
3496027,26,143,69,0
3496037,26,136,63,0
3496047,25,133,62,0
3496057,21,127,66,0
3496067,22,124,52,0
3496077,24,148,55,0
3496088,21,142,53,0
3496098,20,140,47,0
3496108,23,149,67,0
3496118,24,125,61,0
3496128,18,157,65,0
3496138,19,131,83,0
3496148,22,125,77,0
3496158,30,145,93,0
3496168,36,145,93,0
3496178,45,196,85,0
3496188,45,205,97,0
3496198,36,190,89,0
3496208,30,196,80,0
3496218,34,229,76,0
3496228,43,275,80,0
3496238,44,243,75,0
3496248,39,256,72,0
3496258,52,384,79,0
3496268,57,318,77,0
3496278,52,336,84,0
3496288,54,327,122,0
3496299,52,348,121,0
3496309,53,393,181,0
3496319,53,370,143,0
3496329,52,428,122,0
3496339,49,377,104,0
3496349,41,324,99,0
3496359,41,295,104,0
3496369,48,332,101,0
3496379,57,291,149,0
3496389,45,269,138,0
3496399,46,292,147,0
3496409,49,309,105,0
3496419,55,279,111,0
3496429,71,238,103,0
3496439,74,185,106,0
3496449,61,208,101,0
3496459,50,224,103,0
3496469,49,262,182,0
3496479,52,202,153,0
3496489,46,201,175,0
3496499,36,173,147,0
3496510,34,133,127,0
3496520,35,136,102,0
3496530,31,149,84,0
3496540,28,231,67,0
3496550,27,232,60,0
3496560,23,169,63,0
3496570,21,143,66,0
3496580,19,115,63,0
3496590,18,93,73,0
3496600,17,83,67,0
3496610,17,70,67,0
3496620,14,97,62,0
3496630,18,112,64,1001
3496640,17,98,63,0
3496650,20,85,68,0
3496660,18,75,66,0
3496670,18,58,60,0
3496680,17,54,62,0
3496690,19,51,55,0
3496700,21,57,56,0
3496711,18,54,65,0
3496721,19,56,53,0
3496731,19,54,56,0
3496741,17,48,62,0
3496751,18,59,62,0
3496761,21,57,56,0
3496771,17,71,76,0
3496781,20,66,67,0
3496791,17,58,66,0
3496801,15,52,59,0
3496811,17,59,57,0
3496821,18,53,63,0
3496831,17,53,52,0
3496841,16,41,67,0
3496851,16,42,70,0
3496861,19,39,65,0
3496871,18,44,65,0
3496881,16,48,69,0
3496891,19,49,65,0
3496901,17,45,67,0
3496911,17,40,73,0
3496922,23,36,76,0
3496932,22,41,75,0
3496942,19,35,76,0
3496952,18,37,87,0
3496962,19,68,84,0
3496972,18,67,79,0
3496982,17,89,67,0
3496992,15,124,68,0
3497002,19,137,65,0
3497012,19,191,62,0
3497022,15,206,66,0
3497032,20,318,60,0
3497042,31,267,68,0
3497052,32,236,120,0
3497062,34,282,120,0
3497072,26,222,124,0
3497082,23,212,124,0
3497092,20,189,115,0
3497102,19,160,92,0
3497112,20,119,82,0
3497122,17,97,66,0
3497133,18,74,62,0
3497143,17,67,67,0
3497153,18,61,67,0
3497163,17,58,57,0
3497173,16,64,56,0
3497183,17,70,60,0
3497193,16,127,65,0
3497203,17,148,72,0
3497213,19,142,72,0
3497223,19,117,61,0
3497233,18,109,71,0
3497243,18,106,65,0
3497253,19,95,62,0
3497263,17,133,62,0
3497273,16,140,65,0
3497283,17,157,63,0
3497293,15,188,61,0
3497303,17,190,56,0
3497313,15,157,62,0
3497323,16,133,57,0
3497333,15,113,62,0
3497344,15,103,63,0
3497354,20,77,64,0
3497364,19,68,69,0
3497374,19,52,64,0
3497384,19,41,62,0
3497394,17,43,59,0
3497404,14,40,57,0
3497414,14,43,52,0
3497424,15,50,50,0
3497434,14,47,57,0
3497444,12,53,67,0
3497454,14,44,73,0
3497464,16,47,74,0
3497474,16,67,75,0
3497484,16,59,68,0
3497494,22,51,67,0
3497504,20,50,63,0
3497514,21,50,72,0
3497524,22,49,74,0
3497534,24,42,68,0
3497545,22,53,63,0
3497555,18,54,61,0
3497565,17,46,57,0
3497575,18,51,58,0
3497585,17,56,59,0
3497595,18,54,59,0
3497605,18,56,61,0
3497615,27,57,59,0
3497625,29,67,110,0
3497635,29,59,121,0
3497645,24,61,132,0
3497655,25,63,147,0
3497665,20,60,118,0
3497675,18,53,100,0
3497685,20,54,82,0
3497695,16,54,74,0
3497705,14,59,57,0
3497715,16,51,57,0
3497725,15,42,57,0
3497735,17,46,58,0
3497745,17,42,55,0
3497756,15,38,62,0
3497766,15,37,61,0
3497776,15,41,62,0
3497786,16,36,54,0
3497796,14,46,59,0
3497806,15,49,65,0
3497816,17,46,69,0
3497826,15,37,67,0
3497836,16,44,58,0
3497846,18,43,62,0
3497856,19,43,69,0
3497866,17,45,58,0
3497876,16,41,52,0
3497886,15,38,58,0
3497896,15,41,62,0
3497906,15,40,69,0
3497916,18,37,66,0
3497926,20,45,69,0
3497936,18,45,55,0
3497946,19,42,55,0
3497956,17,40,65,0
3497967,16,36,76,0
3497977,17,35,73,0
3497987,16,35,69,0
3497997,15,34,66,0
3498007,16,37,75,0
3498017,16,34,68,0
3498027,17,41,62,0
3498037,16,36,77,0
3498047,15,38,76,0
3498057,14,48,66,0
3498067,18,48,68,0
3498077,21,48,65,0
3498087,18,42,64,0
3498097,25,56,60,0
3498107,27,53,60,0
3498117,22,45,63,0
3498127,23,42,72,0
3498137,18,45,72,0
3498147,16,46,83,0
3498157,18,48,83,0
3498167,19,43,74,0
3498178,25,50,70,0
3498188,30,51,70,0
3498198,35,64,115,0
3498208,36,67,139,0
3498218,31,86,116,0
3498228,24,121,138,0
3498238,21,115,119,0
3498248,17,89,98,0
3498258,19,71,85,600
3498268,21,61,77,0
3498278,18,55,65,0
3498288,15,47,59,0
3498298,17,38,58,0
3498308,16,43,60,0
3498318,16,43,67,0
3498328,16,43,60,0
3498338,17,45,57,0
3498348,16,53,70,0
3498358,12,51,61,0
3498368,15,43,59,0
3498378,18,49,62,0
3498389,16,45,56,0
3498399,16,44,66,0
3498409,16,37,67,0
3498419,16,39,64,0
3498429,17,41,76,0
